index,   freq_ppm,   decay_hz, amplitude
   1,     9.0453,     14.700,    3.185512e-03
   2,     9.0213,     14.700,    4.342473e-03
   3,     8.9861,     14.700,    4.438120e-03
   4,     8.9528,     14.700,    4.219999e-03
   5,     8.9418,     14.700,    3.207816e-03
   6,     8.9254,     14.700,    3.981627e-03
   7,     8.9040,     14.700,    3.874700e-03
   8,     8.8984,     14.700,    4.681872e-03
   9,     8.8890,     14.700,    3.303647e-03
  10,     8.8748,     14.700,    2.142577e-03
  11,     8.8625,     14.700,    2.118543e-03
  12,     8.8487,     14.700,    3.362116e-03
  13,     8.8397,     14.700,    4.795021e-03
  14,     8.8219,     14.700,    2.491425e-03
  15,     8.8102,     14.700,    2.733702e-03
  16,     8.8001,     14.700,    2.673621e-03
  17,     8.7803,     14.700,    4.892454e-03
  18,     8.7646,     14.700,    3.178217e-03
  19,     8.7552,     14.700,    3.257741e-03
  20,     8.7414,     14.700,    2.198870e-03
  21,     8.7217,     14.700,    3.224320e-03
  22,     8.7039,     14.700,    4.454343e-03
  23,     8.6905,     14.700,    3.410832e-03
  24,     8.6796,     14.700,    2.588906e-03
  25,     8.6695,     14.700,    4.218113e-03
  26,     8.6549,     14.700,    4.492914e-03
  27,     8.6454,     14.700,    2.427367e-03
  28,     8.6336,      4.121,    1.197241e-03
  29,     8.6241,     14.700,    3.701513e-03
  30,     8.6154,     13.620,    2.940694e-03
  31,     8.6024,     14.700,    3.586097e-03
  32,     8.5795,     14.700,    3.206505e-03
  33,     8.5632,     14.700,    1.100053e-02
  34,     8.5176,     14.700,    6.576535e-03
  35,     8.4468,      6.832,    1.351800e-01
  36,     8.4454,      6.348,    2.111684e-01
  37,     8.4437,     10.597,    1.253168e-01
  38,     8.4378,     14.700,    3.287178e-02
  39,     8.4278,     14.700,    1.647850e-02
  40,     8.4202,     14.700,    7.162058e-03
  41,     8.4135,     14.700,    4.606244e-03
  42,     8.3998,     14.700,    4.973380e-03
  43,     8.3855,     14.700,    2.670117e-03
  44,     8.3767,     14.700,    5.700287e-03
  45,     8.3645,     14.700,    3.184558e-03
  46,     8.3538,     14.700,    4.577562e-03
  47,     8.3432,     14.700,    4.078902e-03
  48,     8.3304,     11.071,    2.762107e-03
  49,     8.3207,     14.700,    7.903233e-03
  50,     8.3056,     14.700,    4.110449e-03
  51,     8.2942,     14.700,    3.482715e-03
  52,     8.2811,     14.700,    3.012385e-03
  53,     8.2713,     14.700,    3.611209e-03
  54,     8.2506,     14.700,    4.328662e-03
  55,     8.2396,     14.700,    3.694369e-03
  56,     8.2252,     14.700,    3.782729e-03
  57,     8.2123,     14.700,    4.571273e-03
  58,     8.1945,     14.700,    4.493215e-03
  59,     8.1792,     14.700,    3.835363e-03
  60,     8.1616,     14.700,    4.325657e-03
  61,     8.1441,     14.700,    3.929395e-03
  62,     8.1187,     14.700,    6.197464e-03
  63,     8.0834,     14.700,    4.238657e-03
  64,     8.0708,     14.700,    3.431506e-03
  65,     8.0550,     14.700,    3.271329e-03
  66,     8.0437,     14.700,    3.043541e-03
  67,     8.0306,     14.700,    3.021947e-03
  68,     8.0198,     14.700,    5.064687e-03
  69,     8.0044,     14.700,    2.831741e-03
  70,     7.9885,     14.700,    3.437875e-03
  71,     7.9799,     14.700,    3.689330e-03
  72,     7.9698,     14.700,    3.310703e-03
  73,     7.9522,     14.700,    3.392425e-03
  74,     7.9401,     14.700,    3.175985e-03
  75,     7.9279,      7.384,    1.359235e-03
  76,     7.9184,     14.700,    3.367737e-03
  77,     7.9039,     14.700,    4.067029e-03
  78,     7.8829,     14.700,    3.453286e-03
  79,     7.8679,     14.700,    5.564015e-03
  80,     7.8568,     14.700,    4.504836e-03
  81,     7.8491,     14.700,    2.443811e-03
  82,     7.8364,     14.700,    3.570506e-03
  83,     7.8287,     14.700,    2.682603e-03
  84,     7.8138,     14.700,    3.249520e-03
  85,     7.8032,     14.700,    3.577027e-03
  86,     7.7933,     14.700,    2.964988e-03
  87,     7.7783,     14.700,    2.616493e-03
  88,     7.7702,     14.700,    2.130963e-03
  89,     7.7602,     14.700,    2.492304e-03
  90,     7.7502,     14.700,    2.631416e-03
  91,     7.7344,     14.700,    2.453758e-03
  92,     7.7253,     14.700,    1.971249e-03
  93,     7.7143,     14.700,    2.724457e-03
  94,     7.7049,     14.700,    3.337197e-03
  95,     7.6915,     14.700,    3.466052e-03
  96,     7.6782,     14.700,    3.212554e-03
  97,     7.6659,     14.700,    4.516173e-03
  98,     7.6537,     14.700,    3.810485e-03
  99,     7.6268,     14.700,    4.405838e-03
 100,     7.6218,     14.700,    4.362031e-03
 101,     7.6101,     14.700,    5.195838e-03
 102,     7.5881,     14.700,    3.333906e-03
 103,     7.5728,     14.700,    3.831342e-03
 104,     7.5543,     14.700,    3.085613e-03
 105,     7.5460,     14.700,    4.442743e-03
 106,     7.5327,     14.700,    4.549352e-03
 107,     7.5286,      4.898,    1.373528e-03
 108,     7.5201,     13.266,    2.585140e-03
 109,     7.5114,      1.753,    6.006932e-04
 110,     7.5033,     14.700,    2.762874e-03
 111,     7.4843,     14.700,    3.602656e-03
 112,     7.4725,     14.700,    5.023342e-03
 113,     7.4639,     14.700,    3.510129e-03
 114,     7.4466,     14.700,    2.955123e-03
 115,     7.4298,     14.700,    3.584673e-03
 116,     7.4108,     14.700,    2.518154e-03
 117,     7.4008,     14.700,    2.023231e-03
 118,     7.3893,     14.700,    4.910934e-03
 119,     7.3805,      8.076,    1.278940e-03
 120,     7.3713,     14.700,    2.633262e-03
 121,     7.3642,     14.700,    1.949724e-03
 122,     7.3523,     14.700,    3.022499e-03
 123,     7.3511,     14.700,    3.527068e-03
 124,     7.3398,     14.700,    3.409008e-03
 125,     7.3279,     14.700,    2.722947e-03
 126,     7.3115,     14.700,    3.296237e-03
 127,     7.2990,     14.700,    4.552433e-03
 128,     7.2857,     14.700,    4.114387e-03
 129,     7.2727,     14.700,    3.932346e-03
 130,     7.2493,     14.700,    6.472284e-03
 131,     7.2291,     14.700,    4.784045e-03
 132,     7.2163,     14.700,    4.348071e-03
 133,     7.2032,     14.700,    4.920384e-03
 134,     7.1805,     14.700,    5.426379e-03
 135,     7.1629,     14.700,    5.633894e-03
 136,     7.1470,     14.700,    4.587689e-03
 137,     7.1350,     14.700,    3.690335e-03
 138,     7.1256,     14.700,    2.806572e-03
 139,     7.1131,     14.700,    3.000926e-03
 140,     7.1057,     14.700,    2.597253e-03
 141,     7.0951,      2.401,    5.966116e-04
 142,     7.0886,     14.700,    2.741983e-03
 143,     7.0791,     13.980,    5.843475e-03
 144,     7.0731,     12.062,    2.498265e-03
 145,     7.0593,     14.700,    4.434388e-03
 146,     7.0492,     14.700,    4.159986e-03
 147,     7.0332,     14.700,    3.529343e-03
 148,     7.0164,     14.700,    4.087995e-03
 149,     7.0058,     14.700,    4.254117e-03
 150,     6.9938,     14.700,    3.310442e-03
 151,     6.9793,     14.700,    3.539367e-03
 152,     6.9599,     14.700,    5.350252e-03
 153,     6.9504,     14.700,    4.573650e-03
 154,     6.9414,     14.700,    4.518823e-03
 155,     6.9322,      9.542,    1.403894e-03
 156,     6.9225,     14.700,    2.707997e-03
 157,     6.9146,     14.700,    2.573528e-03
 158,     6.9042,     14.700,    5.220755e-03
 159,     6.8828,     14.700,    5.432692e-03
 160,     6.8698,     14.700,    3.331763e-03
 161,     6.8558,     14.700,    4.813781e-03
 162,     6.8377,     14.700,    3.935431e-03
 163,     6.8246,     14.700,    5.198771e-03
 164,     6.8084,     14.700,    2.918914e-03
 165,     6.7930,     14.700,    4.279347e-03
 166,     6.7764,     14.700,    4.879048e-03
 167,     6.7507,     14.700,    4.016311e-03
 168,     6.7359,     14.700,    5.071376e-03
 169,     6.7187,     14.700,    3.630025e-03
 170,     6.7028,     14.700,    3.818447e-03
 171,     6.6784,     14.700,    5.048514e-03
 172,     6.6670,     14.700,    3.432092e-03
 173,     6.6478,     14.700,    4.525899e-03
 174,     6.6303,     14.700,    3.596493e-03
 175,     6.6127,     14.700,    2.501114e-03
 176,     6.5880,     14.700,    3.731149e-03
 177,     6.5771,     14.700,    3.795450e-03
 178,     6.5602,     14.700,    3.684827e-03
 179,     6.5460,     14.700,    3.100406e-03
 180,     6.5380,      6.571,    1.385967e-03
 181,     6.5310,     14.700,    4.523343e-03
 182,     6.5221,     14.700,    3.067292e-03
 183,     6.5054,     14.700,    2.354399e-03
 184,     6.4907,     14.700,    3.443621e-03
 185,     6.4806,     14.700,    2.927161e-03
 186,     6.4697,     14.700,    2.452022e-03
 187,     6.4587,     14.700,    2.639141e-03
 188,     6.4446,     14.700,    4.536145e-03
 189,     6.4196,     14.700,    4.479133e-03
 190,     6.4061,     14.700,    3.400913e-03
 191,     6.3791,     14.700,    3.801894e-03
 192,     6.3639,     14.700,    5.090002e-03
 193,     6.3441,     14.700,    3.565401e-03
 194,     6.3241,     14.700,    3.907023e-03
 195,     6.3158,      9.441,    2.240075e-03
 196,     6.3084,     14.700,    3.668545e-03
 197,     6.3033,      7.573,    2.197567e-03
 198,     6.2958,     10.532,    2.475508e-03
 199,     6.2888,     14.700,    3.392462e-03
 200,     6.2742,     14.700,    3.381166e-03
 201,     6.2588,     14.700,    3.691465e-03
 202,     6.2467,     14.700,    3.699421e-03
 203,     6.2346,     14.700,    3.005551e-03
 204,     6.2143,     14.700,    3.611477e-03
 205,     6.1987,     14.700,    3.820830e-03
 206,     6.1865,     14.700,    4.499369e-03
 207,     6.1713,     14.700,    3.604036e-03
 208,     6.1583,     14.700,    3.492221e-03
 209,     6.1452,     14.700,    3.171298e-03
 210,     6.1274,     14.700,    2.642040e-03
 211,     6.1172,     14.700,    2.740758e-03
 212,     6.1073,     10.897,    2.618359e-03
 213,     6.1018,      6.233,    1.651395e-03
 214,     6.0914,     14.700,    3.418981e-03
 215,     6.0831,      2.480,    5.566460e-04
 216,     6.0786,      3.612,    6.372010e-04
 217,     6.0587,     14.700,    3.554920e-03
 218,     6.0487,     14.700,    2.875871e-03
 219,     6.0413,     10.565,    1.897103e-03
 220,     6.0333,     14.018,    1.529792e-03
 221,     6.0255,     11.701,    1.951262e-03
 222,     6.0182,     14.700,    3.817559e-03
 223,     6.0067,     14.700,    3.047743e-03
 224,     5.9949,     14.700,    2.125491e-03
 225,     5.9829,     14.700,    3.431980e-03
 226,     5.9688,     14.700,    2.979240e-03
 227,     5.9594,     14.700,    2.328417e-03
 228,     5.9374,     14.700,    6.516405e-03
 229,     5.9121,     14.700,    6.962216e-03
 230,     5.8903,     14.700,    7.745303e-03
 231,     5.8429,     14.700,    5.812440e-03
 232,     5.8228,     14.700,    6.749176e-03
 233,     5.7779,     14.700,    5.971305e-03
 234,     5.7415,     14.700,    5.869031e-03
 235,     5.6555,     14.700,    5.923226e-03
 236,     5.6355,     14.700,    5.459744e-03
 237,     5.6011,     14.700,    7.022611e-03
 238,     5.5721,     14.700,    6.034316e-03
 239,     5.5389,     14.700,    6.102342e-03
 240,     5.5030,     14.700,    5.477536e-03
 241,     5.4775,     14.700,    5.677576e-03
 242,     5.4602,     14.700,    3.820208e-03
 243,     5.4456,     14.700,    4.895156e-03
 244,     5.4227,     14.700,    5.433832e-03
 245,     5.3982,     14.700,    4.835752e-03
 246,     5.3901,     14.700,    4.686124e-03
 247,     5.3774,     14.700,    4.063881e-03
 248,     5.3669,     14.700,    4.987106e-03
 249,     5.3546,     14.700,    3.845316e-03
 250,     5.3441,     14.700,    2.146857e-03
 251,     5.3361,     14.700,    5.609834e-03
 252,     5.3226,     14.700,    2.880654e-03
 253,     5.3166,     14.700,    2.898089e-03
 254,     5.3013,     14.425,    2.315285e-03
 255,     5.2941,      5.030,    9.151892e-04
 256,     5.2878,     14.700,    3.318644e-03
 257,     5.2806,     11.428,    8.138238e-04
 258,     5.2714,     14.700,    4.528386e-03
 259,     5.2524,     14.700,    4.255563e-03
 260,     5.2402,     14.700,    3.938160e-03
 261,     5.2262,     14.700,    6.660172e-03
 262,     5.2219,     14.700,    5.550640e-03
 263,     5.2123,     14.700,    2.661493e-03
 264,     5.1955,     10.214,    1.960381e-03
 265,     5.1739,      7.969,    4.603213e-02
 266,     5.1716,     12.375,    1.370642e-01
 267,     5.1630,     14.700,    5.646167e-03
 268,     5.1469,     14.700,    4.402350e-03
 269,     5.1364,     14.700,    3.433196e-03
 270,     5.1227,     14.700,    2.570700e-03
 271,     5.1010,     14.700,    5.745083e-03
 272,     5.0811,     14.700,    7.236245e-03
 273,     5.0567,     14.700,    9.979932e-03
 274,     5.0123,     14.700,    5.319671e-03
 275,     4.9899,     14.700,    6.493432e-03
 276,     4.9704,     14.700,    5.728882e-03
 277,     4.9546,     14.700,    5.022171e-03
 278,     4.9444,     14.700,    4.706863e-03
 279,     4.9213,     14.700,    5.109470e-03
 280,     4.8903,     13.704,    6.203483e-02
 281,     4.8853,     14.700,    1.746957e-02
 282,     4.8770,     14.700,    4.147302e-03
 283,     4.8640,     14.700,    3.919545e-03
 284,     4.8568,     14.700,    5.956516e-02
 285,     4.8440,     14.700,    5.555429e-02
 286,     4.8316,     14.700,    5.356348e-02
 287,     4.8187,     14.700,    5.591194e-02
 288,     4.8058,     14.700,    5.511269e-02
 289,     4.7932,     14.700,    5.682535e-02
 290,     4.7792,     14.700,    4.650823e-02
 291,     4.7644,     14.700,    5.741803e-02
 292,     4.7529,     14.700,    5.936060e-02
 293,     4.7405,     14.700,    5.455209e-02
 294,     4.7285,     14.700,    5.418152e-02
 295,     4.7170,     14.700,    5.572692e-02
 296,     4.7106,     14.700,    1.851511e-03
 297,     4.7013,     14.700,    2.948778e-03
 298,     4.6885,     14.700,    2.532465e-03
 299,     4.6785,      3.140,    9.834901e-04
 300,     4.6695,      4.153,    1.018264e-03
 301,     4.6648,     14.700,    2.413243e-03
 302,     4.6573,      9.040,    9.777001e-04
 303,     4.6413,     14.401,    9.259813e-03
 304,     4.6382,      4.764,    6.315953e-04
 305,     4.6316,     14.700,    1.120076e-02
 306,     4.6243,      7.178,    2.277474e-03
 307,     4.6129,     14.700,    2.500679e-03
 308,     4.6040,     14.700,    3.359048e-03
 309,     4.5938,      5.784,    1.502908e-03
 310,     4.5842,     14.700,    3.407646e-03
 311,     4.5671,     14.700,    3.528250e-03
 312,     4.5479,     14.700,    3.717629e-03
 313,     4.5416,     14.700,    4.780074e-03
 314,     4.5306,     14.700,    3.030880e-03
 315,     4.5198,     14.700,    3.074142e-03
 316,     4.5110,      9.261,    2.367619e-03
 317,     4.5008,     14.700,    4.290359e-03
 318,     4.4865,     14.700,    2.186845e-03
 319,     4.4717,     12.507,    2.007652e-03
 320,     4.4621,     14.700,    3.484063e-03
 321,     4.4510,     14.700,    1.338013e-03
 322,     4.4439,     14.700,    2.528185e-03
 323,     4.4283,     14.700,    1.808074e-03
 324,     4.4142,     14.700,    3.268165e-03
 325,     4.4022,     13.145,    2.419206e-03
 326,     4.3911,     14.700,    3.370720e-03
 327,     4.3795,     14.700,    3.231404e-03
 328,     4.3682,     14.700,    3.906961e-03
 329,     4.3519,     14.700,    3.357366e-03
 330,     4.3403,     14.700,    2.595934e-03
 331,     4.3256,     14.700,    4.491378e-03
 332,     4.3150,     14.700,    3.242622e-03
 333,     4.2994,     14.700,    2.922832e-03
 334,     4.2831,     14.700,    3.652066e-03
 335,     4.2641,     14.700,    3.666616e-03
 336,     4.2513,     14.700,    4.476391e-03
 337,     4.2395,     14.700,    3.805276e-03
 338,     4.2239,     14.700,    5.844605e-03
 339,     4.2075,     14.700,    4.752821e-03
 340,     4.1948,     14.700,    5.333723e-03
 341,     4.1850,     14.700,    7.831717e-03
 342,     4.1758,     14.700,    4.526717e-03
 343,     4.1695,      2.439,    7.488902e-04
 344,     4.1645,      7.505,    2.276394e-03
 345,     4.1582,     14.700,    3.241261e-03
 346,     4.1522,      0.000,    1.939502e-04
 347,     4.1320,     14.700,    9.528686e-03
 348,     4.1074,     14.276,    1.290179e-01
 349,     4.1025,     14.206,    2.386923e-01
 350,     4.0969,     11.876,    8.065540e-02
 351,     4.0915,     10.399,    6.669989e-02
 352,     4.0866,     12.400,    7.797378e-02
 353,     4.0251,     14.151,    3.187329e-01
 354,     4.0092,     14.011,    3.428461e-01
 355,     3.9896,     14.636,    2.626468e-01
 356,     3.9853,     14.578,    2.640364e-01
 357,     3.9387,     10.940,    5.867929e-02
 358,     3.9346,     12.368,    7.489531e-02
 359,     3.9268,     14.672,    1.435705e-01
 360,     3.9228,     12.475,    1.219334e-01
 361,     3.9023,     12.400,    6.176146e-02
 362,     3.8956,     12.505,    1.092784e-01
 363,     3.8911,     12.414,    9.857980e-02
 364,     3.8874,     13.451,    5.919103e-02
 365,     3.8834,     12.889,    1.367573e-01
 366,     3.8787,     12.892,    1.286489e-01
 367,     3.8707,      7.657,    5.470192e-02
 368,     3.8682,      6.032,    4.159253e-02
 369,     3.8557,      6.716,    5.631718e-02
 370,     3.8531,      7.802,    7.431671e-02
 371,     3.8448,     12.672,    5.678111e-02
 372,     3.8337,      5.993,    2.683560e-02
 373,     3.8297,     10.758,    7.056022e-02
 374,     3.8196,     11.675,    5.163539e-02
 375,     3.8166,     13.878,    5.190040e-02
 376,     3.8100,     14.700,    8.034772e-02
 377,     3.7987,     14.700,    1.525991e-01
 378,     3.7952,      9.573,    1.535978e-01
 379,     3.7830,      9.320,    1.168090e-01
 380,     3.7801,     11.683,    6.504961e-02
 381,     3.7645,      9.959,    9.450864e-02
 382,     3.7570,      8.679,    6.092941e-02
 383,     3.7491,      8.331,    5.307231e-02
 384,     3.7416,      6.769,    2.917401e-02
 385,     3.7358,      8.670,    3.310157e-02
 386,     3.7275,      9.650,    5.789860e-02
 387,     3.7106,      8.313,    1.677196e-01
 388,     3.7077,      9.902,    1.215401e-01
 389,     3.7048,     10.629,    1.560080e-01
 390,     3.6955,     10.986,    2.913547e-01
 391,     3.6907,      8.803,    9.859679e-02
 392,     3.6883,      9.682,    1.173922e-01
 393,     3.6774,      7.058,    2.954702e-02
 394,     3.6627,     14.129,    1.448082e-01
 395,     3.6559,     14.494,    8.131085e-02
 396,     3.6510,     14.700,    1.823916e-01
 397,     3.6448,     14.700,    1.512654e-01
 398,     3.6392,     14.700,    1.118551e-01
 399,     3.5943,     10.388,    4.572249e-02
 400,     3.5789,     12.301,    1.380078e-01
 401,     3.5658,      8.086,    2.812492e-02
 402,     3.5589,     12.992,    3.440852e-01
 403,     3.5529,     13.418,    5.569040e-02
 404,     3.5478,     13.816,    3.076366e-01
 405,     3.5442,     12.252,    2.477660e-01
 406,     3.5345,     11.433,    5.719569e-02
 407,     3.5039,      9.887,    6.380632e-03
 408,     3.4986,     12.215,    6.764275e-02
 409,     3.4904,     13.814,    5.307100e-02
 410,     3.4842,      9.957,    5.839262e-03
 411,     3.4803,     13.590,    2.336340e-02
 412,     3.4178,     10.962,    4.396086e+00
 413,     3.4096,     11.250,    8.789748e+00
 414,     3.4012,     10.686,    4.947418e+00
 415,     3.3841,     14.700,    1.993379e-01
 416,     3.3666,     14.700,    1.959736e-01
 417,     3.3633,     10.550,    1.167447e-01
 418,     3.3450,      5.955,    1.618876e-02
 419,     3.3371,      8.962,    3.262053e-02
 420,     3.3291,     14.700,    3.678858e-02
 421,     3.3239,     12.258,    4.096569e-02
 422,     3.3158,     12.088,    6.969926e-02
 423,     3.3087,      8.659,    2.012161e-02
 424,     3.3066,     10.756,    1.381390e-02
 425,     3.2644,      8.641,    5.641978e-01
 426,     3.2629,      4.345,    7.949317e-01
 427,     3.2615,      4.298,    1.206831e+00
 428,     3.2602,      8.243,    1.474205e+00
 429,     3.2534,     11.442,    8.835470e+00
 430,     3.2450,     10.933,    4.077869e+00
 431,     3.2369,     14.700,    8.965930e-02
 432,     3.1961,     11.924,    1.033018e-01
 433,     3.1858,     11.036,    9.179153e-02
