index,   freq_ppm,   decay_hz, amplitude
   1,     9.0913,     14.700,    2.720797e-03
   2,     9.0777,     14.700,    3.644700e-03
   3,     9.0695,     14.700,    2.828687e-03
   4,     9.0579,     13.964,    3.831634e-03
   5,     9.0491,     12.582,    2.448501e-03
   6,     9.0370,     14.700,    3.235170e-03
   7,     9.0257,     14.700,    2.117181e-03
   8,     9.0116,     14.700,    1.852673e-03
   9,     8.9935,     14.700,    1.880300e-03
  10,     8.9836,     14.700,    1.972878e-03
  11,     8.9672,     14.700,    2.355108e-03
  12,     8.9495,     14.700,    2.554345e-03
  13,     8.9378,      9.247,    1.511494e-03
  14,     8.9332,      2.751,    5.997861e-04
  15,     8.9275,      6.797,    9.337487e-04
  16,     8.9185,     14.700,    2.631845e-03
  17,     8.9004,     14.700,    5.107243e-03
  18,     8.8895,     14.700,    4.187975e-03
  19,     8.8755,     14.700,    4.935744e-03
  20,     8.8580,     14.700,    5.624094e-03
  21,     8.8365,     14.700,    5.689361e-03
  22,     8.8227,     14.700,    4.518427e-03
  23,     8.8082,     14.700,    5.368748e-03
  24,     8.8065,     14.700,    5.678580e-03
  25,     8.7933,     14.700,    3.516263e-03
  26,     8.7799,     14.700,    4.581288e-03
  27,     8.7575,     14.700,    4.676477e-03
  28,     8.7463,     14.700,    5.260033e-03
  29,     8.7330,     14.700,    4.517233e-03
  30,     8.7141,     14.700,    3.718106e-03
  31,     8.7046,      8.830,    1.788889e-03
  32,     8.6988,     14.700,    2.610363e-03
  33,     8.6874,     14.700,    2.316831e-03
  34,     8.6720,     14.700,    1.500978e-03
  35,     8.6601,     13.770,    2.633000e-03
  36,     8.6481,     13.700,    2.159359e-03
  37,     8.6335,     13.839,    3.073661e-03
  38,     8.6240,     14.210,    3.371896e-03
  39,     8.5942,     13.908,    3.165170e-03
  40,     8.5877,     14.173,    3.278060e-03
  41,     8.5643,     14.700,    9.248500e-03
  42,     8.5538,     14.700,    2.968796e-03
  43,     8.5429,     14.700,    4.805637e-03
  44,     8.5328,     14.700,    5.055202e-03
  45,     8.5186,     14.700,    5.795821e-03
  46,     8.5033,     14.700,    3.837355e-03
  47,     8.4465,      7.214,    2.057295e-01
  48,     8.4450,      6.707,    1.873366e-01
  49,     8.4429,     11.184,    6.527276e-02
  50,     8.4374,     14.700,    2.996216e-02
  51,     8.4282,     14.700,    1.265154e-02
  52,     8.4164,     14.700,    1.052793e-02
  53,     8.4105,     11.737,    3.155664e-03
  54,     8.4017,     14.700,    2.977932e-03
  55,     8.3932,     14.700,    1.057489e-03
  56,     8.3865,      7.675,    1.466416e-03
  57,     8.3759,     14.700,    3.215742e-03
  58,     8.3638,     14.700,    3.826497e-03
  59,     8.3548,     14.700,    2.089692e-03
  60,     8.3310,     14.700,    2.928311e-03
  61,     8.3213,     14.700,    7.920247e-03
  62,     8.3107,     14.700,    2.766708e-03
  63,     8.2898,     14.700,    2.792046e-03
  64,     8.2745,     14.700,    2.129118e-03
  65,     8.2665,     14.700,    2.361606e-03
  66,     8.2558,     14.700,    2.232981e-03
  67,     8.2486,     14.700,    1.714220e-03
  68,     8.2308,     14.700,    1.952886e-03
  69,     8.2219,     14.700,    3.255455e-03
  70,     8.2113,      7.414,    1.459053e-03
  71,     8.2026,     14.700,    2.943249e-03
  72,     8.1868,     14.700,    2.348342e-03
  73,     8.1783,     14.700,    1.476863e-03
  74,     8.1697,     14.700,    1.972171e-03
  75,     8.1591,     14.700,    3.677177e-03
  76,     8.1349,     14.700,    2.988102e-03
  77,     8.1243,     14.700,    3.176894e-03
  78,     8.1150,     14.700,    2.499118e-03
  79,     8.0970,     14.700,    2.580747e-03
  80,     8.0746,     14.700,    2.965375e-03
  81,     8.0667,     14.700,    3.939468e-03
  82,     8.0593,     10.910,    2.745396e-03
  83,     8.0545,      9.790,    1.013885e-03
  84,     8.0466,     11.654,    1.503144e-03
  85,     8.0407,     14.700,    3.301240e-03
  86,     8.0256,     14.700,    2.589578e-03
  87,     8.0093,     14.700,    4.172795e-03
  88,     7.9891,     14.700,    2.994611e-03
  89,     7.9751,     14.700,    4.665398e-03
  90,     7.9622,     14.700,    3.500972e-03
  91,     7.9394,     14.700,    2.437096e-03
  92,     7.9220,     14.700,    3.096836e-03
  93,     7.8862,     14.700,    2.244932e-03
  94,     7.8694,     12.328,    4.312068e-02
  95,     7.8658,     10.886,    8.045181e-03
  96,     7.8592,     12.170,    4.631563e-02
  97,     7.8555,     12.210,    5.818662e-03
  98,     7.8511,     14.700,    3.561027e-03
  99,     7.8445,     10.623,    2.026564e-03
 100,     7.8043,     14.700,    2.877400e-03
 101,     7.7929,     14.700,    2.896586e-03
 102,     7.7708,     14.700,    2.525767e-03
 103,     7.7564,     14.700,    2.343691e-03
 104,     7.7433,     14.700,    2.550126e-03
 105,     7.7249,     14.700,    3.551486e-03
 106,     7.7187,     14.700,    2.189247e-03
 107,     7.7096,     14.700,    3.030730e-03
 108,     7.7009,     14.700,    2.167473e-03
 109,     7.6880,     14.700,    2.518149e-03
 110,     7.6780,     14.700,    2.958038e-03
 111,     7.6665,      5.887,    7.517699e-04
 112,     7.6621,      6.059,    1.349212e-03
 113,     7.6558,      1.948,    2.124915e-04
 114,     7.6494,     12.034,    1.985137e-03
 115,     7.6444,      8.055,    1.668997e-03
 116,     7.6186,     14.700,    3.638881e-03
 117,     7.6010,     14.700,    4.457811e-03
 118,     7.5849,     14.700,    4.940179e-03
 119,     7.5706,     14.700,    4.469778e-03
 120,     7.5518,     14.700,    4.204836e-03
 121,     7.5350,     14.700,    5.812952e-03
 122,     7.5012,      8.527,    1.304694e-03
 123,     7.4876,     14.700,    2.286547e-03
 124,     7.4812,     13.479,    4.754465e-03
 125,     7.4721,     14.700,    8.492374e-03
 126,     7.4631,     14.700,    4.311975e-03
 127,     7.4554,     14.700,    2.869494e-03
 128,     7.4441,     14.700,    4.758868e-03
 129,     7.4290,     14.700,    1.857227e-03
 130,     7.4172,     14.700,    2.594752e-03
 131,     7.3998,     14.700,    2.777025e-03
 132,     7.3874,     14.700,    2.271465e-03
 133,     7.3726,     14.700,    3.322881e-03
 134,     7.3619,     14.700,    3.029665e-03
 135,     7.3543,     14.700,    1.710453e-03
 136,     7.3422,     10.815,    2.343073e-03
 137,     7.3320,     14.700,    3.469756e-03
 138,     7.3208,     14.700,    3.239819e-03
 139,     7.3052,     14.700,    3.268704e-03
 140,     7.2893,     14.700,    2.177613e-03
 141,     7.2761,     14.700,    2.290371e-03
 142,     7.2651,     14.700,    3.823373e-03
 143,     7.2540,     14.700,    3.062196e-03
 144,     7.2277,     14.700,    3.131867e-03
 145,     7.2089,     14.700,    3.271071e-03
 146,     7.1777,     14.700,    4.025593e-03
 147,     7.1613,     14.700,    3.788399e-03
 148,     7.1218,     14.700,    3.701504e-03
 149,     7.1060,     14.700,    3.461133e-03
 150,     7.0960,      1.684,    4.162409e-04
 151,     7.0880,     11.640,    1.491355e-03
 152,     7.0797,     11.559,    4.283008e-03
 153,     7.0707,     14.700,    3.492826e-03
 154,     7.0596,     14.700,    1.932252e-03
 155,     7.0504,     14.700,    2.789142e-03
 156,     7.0380,     10.665,    1.913850e-03
 157,     7.0287,      8.972,    1.320580e-03
 158,     7.0200,      9.943,    1.468216e-03
 159,     7.0105,     14.700,    2.214749e-03
 160,     7.0013,     14.700,    1.991535e-03
 161,     6.9889,     14.700,    3.078521e-03
 162,     6.9787,     14.700,    3.003027e-03
 163,     6.9683,     11.001,    1.743017e-03
 164,     6.9487,     14.700,    3.740661e-03
 165,     6.9283,     14.700,    3.866378e-03
 166,     6.9070,     14.700,    3.505350e-03
 167,     6.8849,     14.700,    3.308013e-03
 168,     6.8709,     14.700,    4.566970e-03
 169,     6.8413,     14.700,    2.557310e-03
 170,     6.8035,     14.700,    4.317480e-03
 171,     6.7909,     11.415,    2.074081e-03
 172,     6.7837,     14.700,    3.095336e-03
 173,     6.7708,     14.700,    3.464367e-03
 174,     6.7595,     14.700,    3.078409e-03
 175,     6.7472,     14.700,    2.001352e-03
 176,     6.7380,      7.902,    1.212078e-03
 177,     6.7281,     14.700,    2.829603e-03
 178,     6.7190,     10.037,    1.345537e-03
 179,     6.7121,      7.875,    1.660232e-03
 180,     6.7043,     14.700,    1.231180e-03
 181,     6.6928,     14.700,    2.471942e-03
 182,     6.6842,      1.507,    3.473834e-04
 183,     6.6793,     11.506,    2.126465e-03
 184,     6.6732,      8.566,    1.444258e-03
 185,     6.6628,     10.625,    2.035576e-03
 186,     6.6502,     14.700,    4.914666e-03
 187,     6.6324,     14.700,    2.967122e-03
 188,     6.6209,     14.700,    3.497000e-03
 189,     6.6065,     14.700,    3.621766e-03
 190,     6.5878,     14.700,    3.015905e-03
 191,     6.5768,     14.700,    3.659332e-03
 192,     6.5673,     14.700,    3.563106e-03
 193,     6.5515,     14.700,    2.876764e-03
 194,     6.5428,      9.479,    1.439651e-03
 195,     6.5340,     14.700,    3.763951e-03
 196,     6.5251,     14.700,    2.099887e-03
 197,     6.5176,     14.700,    2.167117e-03
 198,     6.5029,     14.700,    2.800859e-03
 199,     6.4835,     14.700,    3.311637e-03
 200,     6.4667,     14.700,    4.139076e-03
 201,     6.4498,     14.700,    3.978965e-03
 202,     6.4378,     14.700,    2.679836e-03
 203,     6.4240,     14.700,    4.738597e-03
 204,     6.4137,     14.700,    5.139800e-03
 205,     6.4032,     14.700,    2.655391e-03
 206,     6.3916,     14.700,    2.453991e-03
 207,     6.3826,     10.020,    1.117330e-03
 208,     6.3758,     12.331,    2.036576e-03
 209,     6.3640,     14.700,    4.071129e-03
 210,     6.3539,     14.700,    4.947436e-03
 211,     6.3370,     14.700,    4.747367e-03
 212,     6.3191,     14.700,    3.933997e-03
 213,     6.3092,     14.700,    2.991063e-03
 214,     6.2914,     14.700,    3.657178e-03
 215,     6.2745,     14.700,    4.881802e-03
 216,     6.2554,     14.700,    3.444491e-03
 217,     6.2474,     14.700,    4.832335e-03
 218,     6.2379,     14.700,    2.858165e-03
 219,     6.2302,     14.700,    4.632710e-03
 220,     6.2203,     14.700,    3.890585e-03
 221,     6.2045,     14.700,    2.391175e-03
 222,     6.1940,     14.700,    4.312675e-03
 223,     6.1842,     14.700,    2.103024e-03
 224,     6.1788,     14.700,    3.483620e-03
 225,     6.1730,     14.700,    2.913122e-03
 226,     6.1628,     13.125,    2.298961e-03
 227,     6.1559,     14.700,    3.666496e-03
 228,     6.1469,      7.368,    1.404152e-03
 229,     6.1412,      6.698,    1.398526e-03
 230,     6.1336,      8.715,    1.439126e-03
 231,     6.1243,     14.700,    3.513130e-03
 232,     6.1114,     14.700,    3.914868e-03
 233,     6.0872,     14.700,    2.910813e-03
 234,     6.0662,     14.700,    2.892728e-03
 235,     6.0509,     14.700,    2.538995e-03
 236,     6.0393,     14.700,    3.058988e-03
 237,     6.0300,     14.700,    2.464004e-03
 238,     6.0199,     14.700,    2.395219e-03
 239,     6.0053,     14.700,    2.509272e-03
 240,     5.9970,      8.956,    1.631560e-03
 241,     5.9880,     14.700,    2.689994e-03
 242,     5.9775,     14.700,    2.617754e-03
 243,     5.9657,     14.700,    3.230578e-03
 244,     5.9553,     14.700,    1.852332e-03
 245,     5.9105,     13.717,    3.196473e-02
 246,     5.9053,     10.428,    2.046129e-02
 247,     5.9034,      9.901,    7.980458e-03
 248,     5.8962,     14.431,    3.754713e-02
 249,     5.8858,     14.700,    3.692036e-02
 250,     5.8665,     14.700,    3.090965e-03
 251,     5.8365,     14.700,    3.261335e-03
 252,     5.8185,     14.700,    2.036545e-03
 253,     5.8033,     14.700,    3.380653e-03
 254,     5.7828,     14.700,    3.854575e-03
 255,     5.7672,     14.700,    2.549887e-03
 256,     5.7501,     14.700,    2.265285e-03
 257,     5.7292,     14.700,    2.766204e-03
 258,     5.7146,     10.655,    1.698502e-03
 259,     5.7041,      8.351,    1.637862e-03
 260,     5.6909,     14.700,    2.090894e-03
 261,     5.6817,     14.700,    1.671133e-03
 262,     5.6738,     14.700,    3.490584e-03
 263,     5.6636,     14.700,    4.613711e-03
 264,     5.6526,     14.700,    2.584843e-03
 265,     5.6444,     14.700,    2.772624e-03
 266,     5.6368,     14.700,    1.911140e-03
 267,     5.6295,      8.194,    1.591351e-03
 268,     5.6225,     14.437,    2.371690e-03
 269,     5.6161,      8.952,    2.075124e-03
 270,     5.6042,     14.700,    2.745694e-03
 271,     5.5940,     14.700,    2.696649e-03
 272,     5.5856,     11.729,    2.075116e-03
 273,     5.5782,      2.799,    4.778465e-04
 274,     5.5739,     10.071,    1.534202e-03
 275,     5.5634,     12.798,    2.969580e-03
 276,     5.5582,      4.245,    6.981602e-04
 277,     5.5523,     14.140,    2.160695e-03
 278,     5.5423,     14.700,    2.431877e-03
 279,     5.5320,     14.700,    3.481398e-03
 280,     5.5238,     14.700,    2.252182e-03
 281,     5.5146,     14.700,    2.237348e-03
 282,     5.5032,     14.700,    4.451061e-03
 283,     5.4830,     14.700,    3.356894e-03
 284,     5.4745,     14.700,    3.461138e-03
 285,     5.4554,     14.700,    3.209835e-03
 286,     5.4409,     14.700,    4.064949e-03
 287,     5.4183,     14.700,    4.836638e-03
 288,     5.4091,     14.700,    2.761950e-03
 289,     5.3945,     14.700,    4.235390e-03
 290,     5.3782,     14.700,    4.314004e-03
 291,     5.3687,     14.700,    3.532058e-03
 292,     5.3523,     14.700,    3.374677e-03
 293,     5.3349,     14.700,    4.092625e-03
 294,     5.3116,     14.700,    2.505067e-03
 295,     5.3000,     14.700,    2.921912e-03
 296,     5.2876,     14.700,    3.066431e-03
 297,     5.2730,     14.700,    2.883274e-03
 298,     5.2601,     14.700,    2.974286e-03
 299,     5.2529,     14.700,    3.021567e-03
 300,     5.2447,     14.700,    2.176741e-03
 301,     5.2275,     13.506,    1.819142e-03
 302,     5.2194,      4.036,    6.217224e-04
 303,     5.2165,     14.700,    2.172653e-03
 304,     5.2092,     10.698,    2.163506e-03
 305,     5.1882,     14.651,    4.486101e-03
 306,     5.1744,     14.656,    4.720859e-03
 307,     5.1489,     14.660,    4.826365e-03
 308,     5.1320,     14.602,    4.221097e-03
 309,     5.1232,     14.042,    3.607077e-03
 310,     5.1055,     14.632,    3.932066e-03
 311,     5.0854,      8.405,    1.336959e-03
 312,     5.0791,     14.700,    3.603017e-03
 313,     5.0724,      2.223,    6.136132e-04
 314,     5.0669,     14.700,    2.485431e-03
 315,     5.0553,     14.700,    2.735349e-03
 316,     5.0406,     14.700,    2.269753e-03
 317,     5.0284,     14.700,    3.009732e-03
 318,     5.0117,     14.700,    2.482987e-03
 319,     4.9983,     14.700,    2.121408e-03
 320,     4.9875,     13.268,    1.180334e-03
 321,     4.9668,     14.700,    2.353797e-03
 322,     4.9580,     14.700,    3.967092e-03
 323,     4.9444,     14.700,    3.728646e-03
 324,     4.9317,     14.700,    3.834658e-03
 325,     4.9205,     14.700,    2.274273e-03
 326,     4.9140,     14.700,    2.331043e-03
 327,     4.9035,     14.700,    4.768836e-03
 328,     4.8911,     14.700,    6.054699e-03
 329,     4.8760,     14.700,    4.667913e-03
 330,     4.8627,     14.700,    5.850325e-03
 331,     4.8465,     14.700,    6.042826e-03
 332,     4.8353,     14.700,    5.046413e-03
 333,     4.8241,     14.700,    4.338522e-03
 334,     4.8143,     14.700,    2.368170e-02
 335,     4.8032,     14.700,    2.378751e-02
 336,     4.7914,     14.700,    3.166204e-02
 337,     4.7765,      4.820,    5.914656e-02
 338,     4.7693,     14.700,    3.940418e-02
 339,     4.7538,     14.700,    3.529218e-02
 340,     4.7423,     14.700,    3.241953e-02
 341,     4.7298,     14.700,    3.141725e-02
 342,     4.7175,     14.700,    3.151963e-02
 343,     4.7038,     14.700,    3.249728e-02
 344,     4.6914,     14.700,    3.258123e-02
 345,     4.6842,     14.700,    1.919601e-03
 346,     4.6781,     14.700,    1.959521e-03
 347,     4.6681,     14.700,    2.719320e-03
 348,     4.6632,      5.499,    1.066724e-03
 349,     4.6566,     14.700,    3.006347e-03
 350,     4.6435,     13.521,    3.368249e-03
 351,     4.6260,     14.700,    3.132775e-03
 352,     4.6160,     14.700,    3.324546e-03
 353,     4.6035,     14.700,    1.810796e-03
 354,     4.5911,     14.700,    3.422731e-03
 355,     4.5781,     14.700,    3.396019e-03
 356,     4.5586,     14.700,    3.601588e-03
 357,     4.5415,     14.700,    2.364356e-03
 358,     4.5141,     14.700,    3.096257e-03
 359,     4.5025,     14.700,    3.380837e-03
 360,     4.4912,     14.700,    2.263962e-03
 361,     4.4746,     14.700,    3.267597e-03
 362,     4.4568,     14.700,    4.368187e-03
 363,     4.4400,     14.700,    4.351845e-03
 364,     4.4135,     14.700,    3.391670e-03
 365,     4.3961,     14.700,    3.459979e-03
 366,     4.3720,     14.700,    3.492411e-03
 367,     4.3626,     14.700,    3.355758e-03
 368,     4.3522,     14.700,    2.548949e-02
 369,     4.3471,     10.503,    1.854455e-02
 370,     4.3451,     12.369,    2.453252e-02
 371,     4.3399,     14.700,    2.842520e-02
 372,     4.3101,     14.700,    1.505057e-03
 373,     4.3032,     14.700,    3.184156e-03
 374,     4.2928,     14.700,    3.309028e-03
 375,     4.2838,     10.407,    2.335825e-03
 376,     4.2769,      8.463,    1.767511e-03
 377,     4.2654,     14.700,    3.652348e-03
 378,     4.2579,     14.700,    2.791455e-03
 379,     4.2408,      8.576,    2.688099e-03
 380,     4.2311,     14.700,    5.757802e-03
 381,     4.2272,     11.800,    2.088092e-02
 382,     4.2233,     10.275,    8.395253e-03
 383,     4.2207,      9.218,    2.251672e-02
 384,     4.2189,     12.648,    1.537886e-02
 385,     4.2135,     14.700,    2.736937e-02
 386,     4.1935,     14.700,    1.711821e-03
 387,     4.1807,     14.700,    1.828337e-03
 388,     4.1313,     14.700,    1.871186e-02
 389,     4.1258,     14.700,    3.581605e-02
 390,     4.1208,     14.700,    3.528300e-02
 391,     4.1153,     14.700,    1.680899e-02
 392,     4.1021,     14.700,    3.353822e-03
 393,     4.0875,     14.700,    3.229361e-03
 394,     4.0460,      8.462,    1.815716e-01
 395,     4.0446,      9.973,    2.984971e-01
 396,     4.0389,     14.700,    1.371313e-02
 397,     4.0286,     12.065,    4.850671e-02
 398,     4.0255,     13.470,    8.385564e-02
 399,     4.0223,     14.321,    6.986307e-02
 400,     4.0041,     14.700,    4.185289e-03
 401,     3.9927,     13.728,    4.290976e-03
 402,     3.9821,      9.364,    2.416636e-03
 403,     3.9757,     14.700,    2.227048e-03
 404,     3.9649,      9.656,    1.066149e-03
 405,     3.9526,     11.370,    4.356720e-03
 406,     3.9421,     12.399,    2.005900e-03
 407,     3.9311,     14.700,    1.590650e-03
 408,     3.9259,      6.825,    1.702589e-03
 409,     3.9081,     11.211,    1.869970e-02
 410,     3.9043,     12.829,    2.557826e-02
 411,     3.8919,     13.815,    4.030550e-02
 412,     3.8881,     14.700,    3.768380e-02
 413,     3.8794,     14.700,    7.333958e-03
 414,     3.8711,     14.700,    5.596902e-03
 415,     3.8507,      5.936,    1.774436e-03
 416,     3.8489,      8.157,    3.019827e-03
 417,     3.8425,      7.840,    4.209148e-03
 418,     3.8367,      9.204,    5.889314e-03
 419,     3.8293,      7.473,    3.872038e-03
 420,     3.8086,      7.116,    7.957965e-03
 421,     3.8066,      8.847,    1.470172e-02
 422,     3.8019,     14.360,    3.831229e-02
 423,     3.7915,     14.028,    2.569352e-02
 424,     3.7857,     14.217,    2.581785e-02
 425,     3.7771,     14.700,    3.517910e-03
 426,     3.7674,     14.700,    3.711633e-03
 427,     3.7524,     14.700,    2.344877e-03
 428,     3.7407,     14.700,    1.165487e-03
 429,     3.7356,     13.426,    3.758969e-03
 430,     3.7283,     14.700,    3.962345e-03
 431,     3.7219,     13.399,    3.491829e-03
 432,     3.7032,      9.554,    2.919536e-03
 433,     3.6893,     13.229,    5.271343e-03
