index,   freq_ppm,   decay_hz, amplitude
   1,     9.0547,     14.700,    2.268327e-03
   2,     9.0403,     14.700,    2.593337e-03
   3,     9.0306,     14.700,    1.560677e-03
   4,     9.0227,     14.700,    2.692505e-03
   5,     9.0104,     11.240,    1.918334e-03
   6,     9.0013,      9.419,    1.040182e-03
   7,     8.9948,     14.700,    2.531470e-03
   8,     8.9788,     14.182,    1.062727e-03
   9,     8.9620,     14.700,    2.010682e-03
  10,     8.9548,     14.700,    1.529255e-03
  11,     8.9442,     14.700,    3.133034e-03
  12,     8.9297,     14.700,    2.133507e-03
  13,     8.9226,      9.088,    8.498977e-04
  14,     8.9183,     14.700,    2.515203e-03
  15,     8.9120,     13.682,    1.631007e-03
  16,     8.8997,     10.797,    2.736695e-03
  17,     8.8987,     14.700,    2.963802e-03
  18,     8.8914,     14.700,    4.064451e-03
  19,     8.8824,      6.279,    8.982990e-04
  20,     8.8749,      7.911,    1.127506e-03
  21,     8.8694,     14.677,    3.260483e-03
  22,     8.8588,     14.700,    3.179505e-03
  23,     8.8376,     14.700,    1.908810e-03
  24,     8.8275,     14.700,    3.037898e-03
  25,     8.8175,     14.700,    2.193327e-03
  26,     8.8083,     14.700,    2.747253e-03
  27,     8.7839,     11.703,    1.536270e-03
  28,     8.7732,     14.700,    2.115868e-03
  29,     8.7633,     13.906,    1.608712e-03
  30,     8.7560,     14.700,    2.693378e-03
  31,     8.7466,      9.947,    1.336165e-03
  32,     8.7345,     11.834,    2.967566e-03
  33,     8.7238,     14.700,    1.565370e-03
  34,     8.7130,     14.700,    1.695561e-03
  35,     8.7016,     10.634,    9.722615e-04
  36,     8.6946,     12.375,    2.289806e-03
  37,     8.6831,     14.700,    2.020568e-03
  38,     8.6749,     14.700,    2.517916e-03
  39,     8.6658,      9.388,    1.327218e-03
  40,     8.6541,     13.375,    2.267088e-03
  41,     8.6365,     14.700,    2.516970e-03
  42,     8.6273,     14.700,    2.335014e-03
  43,     8.6169,      5.730,    7.264034e-04
  44,     8.6063,     14.700,    9.368247e-04
  45,     8.6011,      1.971,    2.483233e-04
  46,     8.5965,     13.109,    2.298502e-03
  47,     8.5832,     14.700,    4.493162e-03
  48,     8.5641,     14.700,    1.309432e-02
  49,     8.5546,     14.700,    2.649325e-03
  50,     8.5431,     14.700,    3.641760e-03
  51,     8.5332,     14.700,    4.135388e-03
  52,     8.5164,     14.700,    5.715886e-03
  53,     8.5112,     11.137,    2.755277e-03
  54,     8.5047,     14.700,    5.589226e-03
  55,     8.4942,     14.700,    3.610507e-03
  56,     8.4874,     11.367,    1.400279e-03
  57,     8.4469,      6.620,    2.071767e-01
  58,     8.4455,      6.125,    3.915576e-01
  59,     8.4439,     10.142,    2.708474e-01
  60,     8.4385,     14.700,    6.592505e-02
  61,     8.4299,     14.700,    2.857856e-02
  62,     8.4158,     14.700,    2.175930e-02
  63,     8.3931,     14.700,    1.871357e-02
  64,     8.3866,     14.700,    3.530547e-03
  65,     8.3778,      6.053,    6.154667e-04
  66,     8.3716,     13.209,    2.101059e-03
  67,     8.3648,      3.546,    3.786390e-04
  68,     8.3564,      5.886,    9.029660e-04
  69,     8.3491,     13.728,    3.165340e-03
  70,     8.3403,      9.930,    8.028039e-04
  71,     8.3322,     14.700,    1.889637e-03
  72,     8.3209,     13.186,    1.000217e-02
  73,     8.3104,     10.577,    1.093353e-03
  74,     8.3012,     14.700,    3.931251e-03
  75,     8.2921,     14.700,    3.585702e-03
  76,     8.2815,     14.700,    1.952702e-03
  77,     8.2740,     13.941,    1.993356e-03
  78,     8.2625,     14.700,    4.042678e-03
  79,     8.2389,     14.700,    4.531312e-03
  80,     8.2259,     14.700,    3.073889e-03
  81,     8.2141,     14.700,    4.023261e-03
  82,     8.2050,     14.700,    3.264205e-03
  83,     8.1921,     14.700,    3.231236e-03
  84,     8.1768,     14.700,    2.335168e-03
  85,     8.1546,     14.700,    2.766144e-03
  86,     8.1418,     14.700,    2.147859e-03
  87,     8.1326,      4.524,    6.287480e-04
  88,     8.1282,      0.613,    1.681565e-04
  89,     8.1260,     14.700,    3.233408e-03
  90,     8.1153,     12.490,    2.052952e-03
  91,     8.1073,     11.466,    1.142098e-03
  92,     8.1011,     14.700,    1.434134e-03
  93,     8.0921,     14.646,    1.953005e-03
  94,     8.0825,      5.663,    1.029379e-03
  95,     8.0763,      7.939,    1.124630e-03
  96,     8.0610,     14.700,    2.688554e-03
  97,     8.0501,     14.700,    2.555934e-03
  98,     8.0430,      7.689,    8.662757e-04
  99,     8.0356,     14.452,    1.397311e-03
 100,     8.0262,     14.700,    3.420306e-03
 101,     8.0149,     14.222,    1.091950e-03
 102,     8.0066,     12.210,    1.555370e-03
 103,     8.0011,      5.244,    1.032023e-03
 104,     7.9910,      9.819,    1.814795e-03
 105,     7.9802,     14.700,    2.902162e-03
 106,     7.9671,     14.700,    2.690682e-03
 107,     7.9575,     14.700,    3.468494e-03
 108,     7.9453,     14.700,    3.619464e-03
 109,     7.9310,     14.700,    3.727612e-03
 110,     7.9110,     14.700,    2.586371e-03
 111,     7.8998,      4.252,    4.037103e-04
 112,     7.8961,     10.449,    1.362454e-03
 113,     7.8922,     10.305,    1.337326e-03
 114,     7.8868,     12.345,    1.650884e-03
 115,     7.8772,     14.700,    2.926310e-03
 116,     7.8648,     14.700,    4.831180e-03
 117,     7.8557,     14.700,    6.026865e-03
 118,     7.8458,     14.700,    4.189728e-03
 119,     7.8291,     14.700,    4.789629e-03
 120,     7.8123,     14.700,    4.226163e-03
 121,     7.8001,     14.700,    4.502487e-03
 122,     7.7831,     14.700,    3.039317e-03
 123,     7.7685,     14.700,    2.663776e-03
 124,     7.7559,     14.700,    4.378242e-03
 125,     7.7474,     14.700,    2.665022e-03
 126,     7.7377,     14.700,    3.104500e-03
 127,     7.7276,     14.399,    2.194580e-03
 128,     7.7217,      9.156,    8.464963e-04
 129,     7.7157,     12.674,    2.437184e-03
 130,     7.7050,     14.154,    2.034517e-03
 131,     7.6946,      8.381,    1.227930e-03
 132,     7.6892,     10.630,    2.696355e-03
 133,     7.6796,     10.418,    1.220023e-03
 134,     7.6707,     14.700,    1.164330e-03
 135,     7.6606,     11.602,    1.823377e-03
 136,     7.6517,      9.364,    1.064183e-03
 137,     7.6413,     14.700,    2.653235e-03
 138,     7.6322,     14.700,    2.225439e-03
 139,     7.6235,     14.058,    3.382575e-03
 140,     7.6117,      6.212,    6.348156e-04
 141,     7.6053,     10.919,    2.250841e-03
 142,     7.5865,     14.700,    3.225054e-03
 143,     7.5674,     14.700,    2.221742e-03
 144,     7.5532,     14.700,    2.905397e-03
 145,     7.5369,     14.700,    3.829476e-03
 146,     7.5277,     14.700,    2.607458e-03
 147,     7.5012,     14.700,    2.726489e-03
 148,     7.4877,     14.228,    2.661148e-03
 149,     7.4813,     14.700,    3.665449e-03
 150,     7.4729,     14.700,    5.349508e-03
 151,     7.4628,     14.700,    3.436381e-03
 152,     7.4453,     14.700,    2.290844e-03
 153,     7.4375,     14.700,    3.957081e-03
 154,     7.4136,     14.700,    4.764072e-03
 155,     7.3959,     14.700,    4.193270e-03
 156,     7.3733,     14.700,    5.343671e-03
 157,     7.3604,     14.700,    4.823298e-03
 158,     7.3133,     14.700,    4.550834e-03
 159,     7.2969,     14.700,    5.449333e-03
 160,     7.2818,     14.700,    3.586719e-03
 161,     7.2708,     14.700,    2.427577e-03
 162,     7.2612,     14.700,    3.044429e-03
 163,     7.2467,     14.700,    3.267606e-03
 164,     7.2339,     14.700,    4.498669e-03
 165,     7.2234,     14.700,    3.118185e-03
 166,     7.2129,      9.739,    9.934963e-04
 167,     7.2089,      3.306,    3.658335e-04
 168,     7.2049,     14.700,    2.066564e-03
 169,     7.1912,      5.627,    9.513272e-04
 170,     7.1846,     14.700,    2.378420e-03
 171,     7.1726,     14.700,    2.804628e-03
 172,     7.1640,     14.700,    1.797786e-03
 173,     7.1318,     14.700,    2.835797e-03
 174,     7.1140,     14.700,    3.089384e-03
 175,     7.0972,     14.700,    1.898969e-03
 176,     7.0798,     14.700,    8.980944e-03
 177,     7.0681,     14.700,    4.215020e-03
 178,     7.0547,     14.700,    3.671534e-03
 179,     7.0407,     14.700,    3.804510e-03
 180,     7.0250,     14.700,    5.433946e-03
 181,     7.0098,     14.700,    3.832352e-03
 182,     6.9946,     14.700,    3.785614e-03
 183,     6.9767,     14.700,    3.734524e-03
 184,     6.9594,     14.700,    2.906270e-03
 185,     6.9465,     14.610,    1.590389e-03
 186,     6.9347,     14.700,    3.074028e-03
 187,     6.9250,     14.700,    2.284552e-03
 188,     6.9156,     14.700,    1.880585e-03
 189,     6.9029,     14.700,    2.298810e-03
 190,     6.8914,     14.700,    1.665312e-03
 191,     6.8795,     14.700,    2.274459e-03
 192,     6.8717,     14.700,    3.410373e-03
 193,     6.8623,     14.316,    7.549006e-04
 194,     6.8571,     14.700,    2.986538e-03
 195,     6.8501,     13.958,    2.303301e-03
 196,     6.8410,      2.545,    4.360327e-04
 197,     6.8344,     10.144,    1.373762e-03
 198,     6.8274,     10.263,    1.956919e-03
 199,     6.8224,      5.907,    1.054059e-03
 200,     6.8146,     14.700,    3.287453e-03
 201,     6.8036,     14.700,    2.168339e-03
 202,     6.7939,     14.700,    1.885656e-03
 203,     6.7851,     14.700,    3.279989e-03
 204,     6.7698,     14.700,    2.173714e-03
 205,     6.7577,     14.700,    2.151711e-03
 206,     6.7509,     10.049,    1.124189e-03
 207,     6.7418,     14.700,    2.269027e-03
 208,     6.7302,     14.700,    1.774596e-03
 209,     6.7169,     14.511,    4.143993e-03
 210,     6.7108,      5.279,    7.870406e-04
 211,     6.6946,     14.700,    2.480615e-03
 212,     6.6869,     14.700,    2.073942e-03
 213,     6.6777,     14.700,    1.982979e-03
 214,     6.6645,     14.700,    2.108349e-03
 215,     6.6572,     13.521,    2.240271e-03
 216,     6.6479,     14.700,    2.833306e-03
 217,     6.6372,     14.700,    1.814987e-03
 218,     6.6270,     14.700,    1.980544e-03
 219,     6.6178,     14.700,    3.494998e-03
 220,     6.6046,     14.700,    3.647782e-03
 221,     6.5916,     14.700,    3.229543e-03
 222,     6.5633,     14.700,    1.904852e-03
 223,     6.5522,     14.700,    2.412463e-03
 224,     6.5444,     14.700,    3.158914e-03
 225,     6.5256,     14.700,    1.426624e-03
 226,     6.5139,     14.370,    2.473417e-03
 227,     6.5038,     14.700,    3.365477e-03
 228,     6.4981,      4.809,    6.948259e-04
 229,     6.4903,     11.556,    2.042935e-03
 230,     6.4795,      6.232,    1.075777e-03
 231,     6.4741,      4.242,    4.562509e-04
 232,     6.4620,     14.700,    2.601450e-03
 233,     6.4556,      6.066,    5.467426e-04
 234,     6.4495,     12.311,    8.653819e-04
 235,     6.4407,     11.557,    2.570470e-03
 236,     6.4362,      4.551,    7.761431e-04
 237,     6.4237,     13.850,    2.330580e-03
 238,     6.4125,      6.133,    6.815674e-04
 239,     6.4026,      8.172,    7.293104e-04
 240,     6.3904,     14.700,    3.939298e-03
 241,     6.3803,     14.700,    2.547734e-03
 242,     6.3634,     13.787,    5.425496e-03
 243,     6.3470,     14.700,    2.263138e-03
 244,     6.3330,     14.700,    2.207093e-03
 245,     6.3245,     14.700,    2.195214e-03
 246,     6.3095,     12.818,    1.921712e-03
 247,     6.2973,     14.700,    1.867997e-03
 248,     6.2821,     12.408,    2.157492e-03
 249,     6.2684,     14.700,    3.009868e-03
 250,     6.2633,      3.271,    3.371902e-04
 251,     6.2570,      9.845,    1.212120e-03
 252,     6.2512,     14.700,    1.872561e-03
 253,     6.2363,     14.700,    2.930107e-03
 254,     6.2248,     14.700,    2.486972e-03
 255,     6.2109,     14.700,    2.618107e-03
 256,     6.1895,     14.700,    2.946024e-03
 257,     6.1747,     14.700,    2.556824e-03
 258,     6.1589,     14.700,    2.878236e-03
 259,     6.1431,     14.700,    2.587687e-03
 260,     6.1296,     14.700,    4.321790e-03
 261,     6.1172,     14.700,    2.035710e-03
 262,     6.0999,     14.700,    2.700919e-03
 263,     6.0882,     14.700,    2.697642e-03
 264,     6.0790,     14.700,    2.270522e-03
 265,     6.0615,     10.457,    1.206096e-03
 266,     6.0554,     14.700,    2.568322e-03
 267,     6.0503,      7.684,    7.052817e-04
 268,     6.0433,     14.700,    2.751314e-03
 269,     6.0313,      8.246,    2.124669e-03
 270,     6.0228,     14.700,    1.760324e-03
 271,     6.0168,      7.938,    1.625868e-03
 272,     6.0060,     14.323,    4.871273e-04
 273,     6.0003,      2.874,    5.576555e-04
 274,     5.9931,      6.426,    1.142452e-03
 275,     5.9836,     13.794,    2.389423e-03
 276,     5.9780,     14.700,    1.786041e-03
 277,     5.9719,     14.700,    2.465891e-03
 278,     5.9677,      4.487,    3.859411e-04
 279,     5.9605,     12.463,    2.111695e-03
 280,     5.9511,      5.245,    8.839109e-04
 281,     5.9451,     11.430,    2.375542e-03
 282,     5.9373,      4.535,    2.652294e-04
 283,     5.9364,      6.828,    7.317325e-04
 284,     5.9247,     14.700,    1.959879e-03
 285,     5.9148,     14.700,    3.776897e-03
 286,     5.9063,     14.700,    2.363474e-03
 287,     5.8961,     14.700,    2.529654e-03
 288,     5.8868,     14.700,    3.548053e-03
 289,     5.8784,     14.700,    3.086651e-03
 290,     5.8619,     14.700,    2.821314e-03
 291,     5.8425,     14.700,    3.284999e-03
 292,     5.8225,     14.684,    1.757446e-03
 293,     5.8130,     14.700,    3.076549e-03
 294,     5.7914,     14.700,    2.779364e-03
 295,     5.7757,     14.700,    2.312073e-03
 296,     5.7640,     14.700,    2.136986e-03
 297,     5.7534,     14.700,    2.289941e-03
 298,     5.7443,     10.974,    1.646376e-03
 299,     5.7331,     10.876,    1.931258e-03
 300,     5.7201,     14.700,    2.411515e-03
 301,     5.7082,     14.700,    2.341359e-03
 302,     5.6972,      7.001,    7.093489e-04
 303,     5.6875,     14.567,    1.528703e-03
 304,     5.6800,     14.700,    2.271620e-03
 305,     5.6649,     14.700,    4.736216e-03
 306,     5.6521,     14.700,    4.867907e-03
 307,     5.6435,     14.700,    4.143673e-03
 308,     5.6281,     14.700,    5.686109e-03
 309,     5.6119,     14.700,    3.876267e-03
 310,     5.5854,     14.700,    4.674570e-03
 311,     5.5736,     14.700,    3.234976e-03
 312,     5.5585,     14.700,    3.112206e-03
 313,     5.5473,     14.700,    4.910142e-03
 314,     5.5349,     14.700,    5.341854e-03
 315,     5.5078,     14.700,    4.266876e-03
 316,     5.4857,     14.700,    4.794483e-03
 317,     5.4766,     14.700,    3.267612e-03
 318,     5.4573,     14.700,    3.081568e-03
 319,     5.4075,     11.318,    5.511480e-02
 320,     5.4027,     13.542,    7.542618e-02
 321,     5.3906,     14.023,    2.194778e-03
 322,     5.3871,     14.700,    5.794060e-03
 323,     5.3759,     14.700,    2.339901e-03
 324,     5.3688,     14.700,    2.253861e-03
 325,     5.3572,     14.700,    4.200586e-03
 326,     5.3407,     14.700,    1.985891e-03
 327,     5.3348,     14.700,    1.769451e-03
 328,     5.3069,     10.961,    1.532416e-03
 329,     5.2946,     12.654,    3.983846e-02
 330,     5.2931,      6.953,    2.217201e-02
 331,     5.2885,     14.700,    1.014877e-01
 332,     5.2804,     14.700,    2.986269e-02
 333,     5.2726,     14.700,    3.206386e-02
 334,     5.2650,     14.700,    3.286966e-02
 335,     5.2575,     14.700,    3.769151e-02
 336,     5.2503,     14.700,    4.513295e-02
 337,     5.1888,     10.427,    9.377198e+00
 338,     5.1870,      3.622,    2.090457e+00
 339,     5.1860,      1.105,    1.895579e+00
 340,     5.1841,      4.841,    3.596781e+00
 341,     5.1824,     11.356,    6.986834e+00
 342,     5.1758,     14.700,    7.354605e-01
 343,     5.0748,      8.609,    2.395193e-02
 344,     5.0729,     12.269,    4.899285e-02
 345,     5.0664,     14.700,    8.598198e-03
 346,     5.0539,     14.700,    7.105966e-03
 347,     5.0447,     14.700,    4.787918e-03
 348,     5.0240,     14.700,    4.077077e-03
 349,     5.0157,     14.700,    3.725761e-03
 350,     5.0061,     14.700,    2.090080e-03
 351,     4.9966,     14.700,    3.177924e-03
 352,     4.9878,     14.700,    2.512373e-03
 353,     4.9732,     14.700,    3.186342e-03
 354,     4.9540,     14.700,    5.269316e-03
 355,     4.9426,     14.700,    4.284452e-03
 356,     4.9345,     14.700,    3.086916e-03
 357,     4.9227,     14.700,    4.636555e-03
 358,     4.9074,     14.700,    3.731464e-03
 359,     4.8853,     14.700,    7.052763e-03
 360,     4.8640,     14.700,    2.983314e-03
 361,     4.8547,     14.700,    1.504456e-03
 362,     4.8469,      9.586,    1.027248e-03
 363,     4.8387,     14.700,    2.599857e-03
 364,     4.8179,      4.685,    8.765114e-04
 365,     4.8081,     14.700,    5.178273e-03
 366,     4.7965,     14.700,    4.988270e-03
 367,     4.7834,     14.700,    2.735283e-03
 368,     4.7760,      4.328,    1.294967e-03
 369,     4.7631,     14.700,    7.533563e-03
 370,     4.7543,     14.700,    5.357955e-03
 371,     4.7316,     14.700,    2.275014e-03
 372,     4.7127,     14.700,    3.133642e-03
 373,     4.6956,     14.700,    2.926246e-03
 374,     4.6768,     14.700,    2.708867e-03
 375,     4.6535,     11.124,    2.792594e-02
 376,     4.6435,     10.658,    2.753571e-02
 377,     4.6368,     14.700,    1.876329e-03
 378,     4.6311,     14.700,    2.797290e-03
 379,     4.6008,     14.700,    2.610930e-03
 380,     4.5934,     13.587,    2.659766e-03
 381,     4.5818,     14.700,    2.109569e-03
 382,     4.5646,      9.606,    9.352184e-04
 383,     4.5568,     14.700,    3.427470e-03
 384,     4.5502,     14.700,    1.832298e-03
 385,     4.5375,      8.364,    1.029515e-03
 386,     4.5261,     14.700,    2.319693e-03
 387,     4.5164,     14.700,    2.610597e-03
 388,     4.5083,     14.700,    3.557954e-03
 389,     4.4959,     13.906,    1.465496e-03
 390,     4.4843,      6.747,    1.438450e-03
 391,     4.4822,      6.788,    4.620532e-04
 392,     4.4736,      9.028,    1.750013e-03
 393,     4.4647,     11.279,    1.820244e-03
 394,     4.4571,     10.888,    1.263420e-03
 395,     4.4505,      6.229,    1.331422e-03
 396,     4.4420,      5.052,    1.189446e-03
 397,     4.4348,     14.700,    1.925964e-03
 398,     4.4218,     14.611,    1.731960e-03
 399,     4.4127,     14.700,    2.163662e-03
 400,     4.3973,     14.700,    2.515634e-03
 401,     4.3914,     14.700,    1.166162e-03
 402,     4.3777,     14.700,    1.821381e-03
 403,     4.3670,     14.700,    2.663140e-03
 404,     4.3568,     14.252,    8.836097e-04
 405,     4.3440,     14.700,    2.668802e-03
 406,     4.3336,     14.700,    2.504819e-03
 407,     4.3183,     14.700,    4.116334e-03
 408,     4.3038,     14.700,    2.954267e-03
 409,     4.2938,     13.572,    1.907576e-03
 410,     4.2872,     10.601,    1.522674e-03
 411,     4.2687,     14.700,    5.462930e-03
 412,     4.2635,     14.700,    4.099619e-03
 413,     4.2538,     14.700,    2.133826e-03
 414,     4.2465,     14.700,    3.589293e-03
 415,     4.2359,     14.700,    4.506733e-03
 416,     4.2220,     14.166,    1.676770e-03
 417,     4.2149,     14.700,    3.536327e-03
 418,     4.2072,     14.700,    1.898352e-03
 419,     4.2029,     14.456,    3.309262e-03
 420,     4.1955,      9.417,    2.335917e-03
 421,     4.1844,     14.700,    2.742179e-03
 422,     4.1676,     14.700,    6.132950e-03
 423,     4.1587,     14.700,    7.529497e-03
 424,     4.1461,     14.700,    1.869560e-02
 425,     4.1408,     14.700,    1.773760e-02
 426,     4.1301,     14.700,    7.034792e-03
 427,     4.1249,     13.464,    2.304454e-03
 428,     4.1178,     14.700,    5.598923e-03
 429,     4.0990,     14.700,    2.579024e-03
 430,     4.0578,      8.342,    3.594012e-01
 431,     4.0562,      5.276,    3.648541e-01
 432,     4.0542,      4.895,    4.181345e-01
 433,     4.0525,      6.403,    7.503969e-01
