index,   freq_ppm,   decay_hz, amplitude
   1,     9.0922,     13.666,    3.570917e-03
   2,     9.0855,     14.700,    2.006133e-03
   3,     9.0746,     14.700,    3.358341e-03
   4,     9.0681,     14.700,    2.584132e-03
   5,     9.0526,     14.305,    3.316110e-03
   6,     9.0431,      6.143,    2.475584e-03
   7,     9.0352,      9.075,    1.725596e-03
   8,     9.0299,      7.939,    2.571919e-03
   9,     9.0245,     14.700,    3.471137e-03
  10,     9.0196,      7.608,    1.974900e-03
  11,     9.0076,     14.700,    2.763798e-03
  12,     9.0017,      8.842,    2.126156e-03
  13,     8.9913,     14.700,    3.305240e-03
  14,     8.9850,     14.700,    2.739105e-03
  15,     8.9771,     14.700,    3.084506e-03
  16,     8.9625,     14.700,    3.696614e-03
  17,     8.9515,     14.700,    3.561798e-03
  18,     8.9390,     14.700,    3.243804e-03
  19,     8.9182,     14.700,    5.156780e-03
  20,     8.8986,     14.700,    4.099456e-03
  21,     8.8864,     14.700,    3.393541e-03
  22,     8.8754,     14.700,    3.490925e-03
  23,     8.8600,     14.700,    3.439112e-03
  24,     8.8445,     14.700,    4.376756e-03
  25,     8.8324,     14.700,    3.619975e-03
  26,     8.8168,     14.700,    5.246121e-03
  27,     8.8012,     14.700,    4.380186e-03
  28,     8.7948,     12.538,    2.465223e-03
  29,     8.7823,      9.681,    2.733003e-03
  30,     8.7719,     14.700,    2.482885e-03
  31,     8.7593,     14.700,    3.327747e-03
  32,     8.7519,     14.700,    4.586683e-03
  33,     8.7452,     14.700,    3.505438e-03
  34,     8.7330,     14.700,    3.193529e-03
  35,     8.7267,     11.915,    2.818970e-03
  36,     8.7188,     14.700,    3.555411e-03
  37,     8.7137,     10.759,    1.961006e-03
  38,     8.7046,      8.292,    2.164939e-03
  39,     8.6926,     14.700,    3.307827e-03
  40,     8.6821,     14.700,    3.422232e-03
  41,     8.6740,     14.700,    3.975345e-03
  42,     8.6570,     14.700,    3.268197e-03
  43,     8.6457,     14.700,    4.475596e-03
  44,     8.6336,     14.700,    4.157557e-03
  45,     8.6222,     14.700,    4.262865e-03
  46,     8.6120,     14.700,    4.248702e-03
  47,     8.5965,     14.700,    4.665209e-03
  48,     8.5807,     14.700,    3.909866e-03
  49,     8.5707,     10.180,    3.122978e-03
  50,     8.5659,      4.558,    1.462943e-03
  51,     8.5636,      7.331,    3.262421e-03
  52,     8.5578,     12.262,    3.136896e-03
  53,     8.5514,      6.183,    1.740590e-03
  54,     8.5431,     12.231,    3.486926e-03
  55,     8.5356,     14.700,    2.800297e-03
  56,     8.5268,     14.700,    4.289967e-03
  57,     8.5143,     14.700,    5.875816e-03
  58,     8.5038,     14.700,    3.397624e-03
  59,     8.4916,      2.373,    1.074617e-03
  60,     8.4830,     14.700,    4.424753e-03
  61,     8.4750,     14.700,    2.957408e-03
  62,     8.4464,      6.485,    1.415265e-01
  63,     8.4451,      9.318,    3.029042e-01
  64,     8.4385,     14.700,    3.431018e-02
  65,     8.4284,     14.700,    1.923977e-02
  66,     8.4129,     14.700,    1.274559e-02
  67,     8.3982,     14.700,    1.011060e-02
  68,     8.3868,     14.700,    1.055644e-02
  69,     8.3814,     14.700,    4.577060e-03
  70,     8.3713,     14.700,    3.485237e-03
  71,     8.3600,     14.700,    4.742276e-03
  72,     8.3496,     14.700,    3.523140e-03
  73,     8.3391,     14.700,    4.686389e-03
  74,     8.3208,     14.700,    7.815011e-03
  75,     8.3130,     11.706,    2.424250e-03
  76,     8.3050,      7.853,    1.988439e-03
  77,     8.2998,      5.821,    1.061638e-03
  78,     8.2905,      8.813,    1.929756e-03
  79,     8.2833,     14.700,    1.953632e-03
  80,     8.2746,     14.700,    3.877049e-03
  81,     8.2684,     14.700,    4.459631e-03
  82,     8.2573,     14.700,    3.650062e-03
  83,     8.2492,     14.700,    3.386698e-03
  84,     8.2381,     14.700,    4.677983e-03
  85,     8.2280,     14.700,    5.267475e-03
  86,     8.2086,     14.700,    4.927252e-03
  87,     8.2026,     14.700,    2.751543e-03
  88,     8.1896,     14.700,    4.998018e-03
  89,     8.1749,     14.700,    4.302057e-03
  90,     8.1615,     14.700,    3.670797e-03
  91,     8.1512,     14.700,    3.326173e-03
  92,     8.1429,     14.700,    3.483737e-03
  93,     8.1355,     13.382,    3.099053e-03
  94,     8.1260,     10.356,    2.019762e-03
  95,     8.1171,     14.700,    4.987597e-03
  96,     8.1061,     14.700,    3.313526e-03
  97,     8.0940,     14.700,    2.388012e-03
  98,     8.0773,     14.700,    3.713186e-03
  99,     8.0746,     14.700,    5.504679e-03
 100,     8.0472,     14.700,    5.143721e-03
 101,     8.0321,     14.700,    4.743302e-03
 102,     8.0204,     14.700,    4.721103e-03
 103,     8.0062,     14.700,    4.533996e-03
 104,     7.9822,     14.700,    5.442711e-03
 105,     7.9642,     14.700,    4.125895e-03
 106,     7.9535,     14.632,    4.411085e-03
 107,     7.9442,     14.595,    3.355435e-03
 108,     7.9317,     14.621,    4.350717e-03
 109,     7.9171,     14.497,    4.423445e-03
 110,     7.9036,     14.620,    4.526050e-03
 111,     7.8798,     14.629,    4.373542e-03
 112,     7.8678,     14.700,    5.925334e-03
 113,     7.8615,      8.840,    2.151200e-03
 114,     7.8553,     14.700,    6.650057e-03
 115,     7.8438,     14.700,    3.833839e-03
 116,     7.8358,      4.039,    9.436228e-04
 117,     7.8237,     14.700,    4.101964e-03
 118,     7.8072,     14.700,    3.422392e-03
 119,     7.7927,     14.700,    4.923531e-03
 120,     7.7732,     14.700,    5.327676e-03
 121,     7.7543,     14.700,    5.259425e-03
 122,     7.7423,     14.700,    4.331721e-03
 123,     7.7355,     11.252,    2.982555e-03
 124,     7.7262,     11.474,    1.779256e-03
 125,     7.7196,     12.580,    3.829371e-03
 126,     7.7090,     14.700,    3.280987e-03
 127,     7.6991,     14.700,    2.822964e-03
 128,     7.6868,     14.700,    2.468333e-03
 129,     7.6765,     14.700,    1.665464e-03
 130,     7.6650,     14.700,    4.801966e-03
 131,     7.6584,     14.700,    2.088935e-03
 132,     7.6455,     14.700,    3.294493e-03
 133,     7.6344,     14.700,    2.334661e-03
 134,     7.6242,     14.700,    4.098615e-03
 135,     7.6117,     11.769,    2.309885e-03
 136,     7.6022,     14.700,    3.240493e-03
 137,     7.5936,     14.700,    3.524791e-03
 138,     7.5851,     14.700,    2.397342e-03
 139,     7.5756,      9.502,    4.064943e-03
 140,     7.5566,     13.885,    3.189791e-03
 141,     7.5457,     14.700,    4.808816e-03
 142,     7.5321,     14.700,    5.634009e-03
 143,     7.5186,     14.700,    3.976285e-03
 144,     7.5086,     14.700,    2.963072e-03
 145,     7.4832,     14.700,    4.467271e-03
 146,     7.4722,     14.110,    6.151726e-03
 147,     7.4624,     14.700,    4.038298e-03
 148,     7.4530,     14.700,    5.211389e-03
 149,     7.4375,     14.700,    4.124110e-03
 150,     7.4198,     14.700,    3.834413e-03
 151,     7.3975,      5.625,    8.412321e-04
 152,     7.3930,     14.700,    4.913402e-03
 153,     7.3835,     14.700,    3.567879e-03
 154,     7.3752,     12.677,    3.671068e-03
 155,     7.3665,      4.202,    1.287419e-03
 156,     7.3613,     14.700,    2.914899e-03
 157,     7.3538,      9.300,    2.720891e-03
 158,     7.3458,     12.091,    2.215685e-03
 159,     7.3379,     14.700,    3.707989e-03
 160,     7.3328,     14.700,    5.547901e-03
 161,     7.3166,     14.700,    3.862214e-03
 162,     7.2966,     14.700,    5.028117e-03
 163,     7.2840,     14.700,    4.029665e-03
 164,     7.2759,     14.700,    4.765742e-03
 165,     7.2624,     14.700,    3.466936e-03
 166,     7.2452,     14.700,    5.134639e-03
 167,     7.2206,     14.700,    2.909624e-03
 168,     7.2110,     14.700,    3.843308e-03
 169,     7.1929,     14.700,    2.847514e-03
 170,     7.1745,     14.700,    3.957782e-03
 171,     7.1660,     14.700,    2.776713e-03
 172,     7.1514,     14.700,    3.242501e-03
 173,     7.1371,     14.700,    5.590559e-03
 174,     7.1201,     14.700,    4.546168e-03
 175,     7.1125,     13.299,    2.345070e-03
 176,     7.1006,      9.221,    2.059882e-03
 177,     7.0912,     14.700,    3.946836e-03
 178,     7.0808,     14.700,    4.918751e-03
 179,     7.0758,     14.700,    4.915352e-03
 180,     7.0623,      6.576,    1.826978e-03
 181,     7.0552,     14.700,    4.402765e-03
 182,     7.0366,     14.700,    4.456892e-03
 183,     7.0229,     14.700,    4.086693e-03
 184,     7.0080,     14.700,    4.867250e-03
 185,     6.9987,     14.700,    3.100327e-03
 186,     6.9860,     14.700,    4.172818e-03
 187,     6.9728,     14.700,    3.168073e-03
 188,     6.9616,     14.700,    4.693274e-03
 189,     6.9535,     14.700,    2.770584e-03
 190,     6.9454,     14.700,    3.386179e-03
 191,     6.9264,     14.700,    3.478424e-03
 192,     6.9172,     14.700,    3.514060e-03
 193,     6.9056,      7.011,    1.119529e-03
 194,     6.8978,     14.700,    3.641880e-03
 195,     6.8861,     14.700,    4.129700e-03
 196,     6.8696,     14.700,    4.657400e-03
 197,     6.8587,     10.662,    3.526769e-03
 198,     6.8496,      3.598,    1.117694e-03
 199,     6.8424,      4.046,    9.399683e-04
 200,     6.8344,     14.700,    3.638921e-03
 201,     6.8279,     14.700,    4.175168e-03
 202,     6.8196,      9.270,    8.511661e-04
 203,     6.8116,     12.922,    2.915811e-03
 204,     6.7985,      7.098,    1.779022e-03
 205,     6.7944,     14.700,    2.084990e-03
 206,     6.7866,      7.488,    1.602564e-03
 207,     6.7815,      3.471,    1.098846e-03
 208,     6.7721,     14.555,    4.137550e-03
 209,     6.7612,     14.700,    4.196471e-03
 210,     6.7511,     14.700,    5.100328e-03
 211,     6.7304,     14.700,    4.070515e-03
 212,     6.7191,     14.700,    3.914155e-03
 213,     6.7069,     14.700,    3.763073e-03
 214,     6.6780,     14.700,    5.153834e-03
 215,     6.6449,     14.700,    3.508535e-03
 216,     6.6357,      5.977,    1.404733e-03
 217,     6.6316,      2.766,    4.540987e-04
 218,     6.6257,     11.081,    2.408933e-03
 219,     6.6181,     14.700,    4.055840e-03
 220,     6.6098,     14.700,    2.014163e-03
 221,     6.6028,      9.163,    1.872421e-03
 222,     6.5937,      8.434,    1.709728e-03
 223,     6.5846,      8.587,    2.329557e-03
 224,     6.5781,     14.700,    4.864050e-03
 225,     6.5693,     14.292,    4.370269e-03
 226,     6.5606,     14.700,    3.916209e-03
 227,     6.5535,     14.700,    3.820097e-03
 228,     6.5482,     14.700,    3.293976e-03
 229,     6.5388,     14.700,    4.372907e-03
 230,     6.5261,     14.700,    3.233747e-03
 231,     6.5199,     14.700,    4.312022e-03
 232,     6.5084,     14.700,    5.858498e-03
 233,     6.4918,     14.700,    6.345334e-03
 234,     6.4738,     14.700,    3.735881e-03
 235,     6.4647,     14.700,    3.833623e-03
 236,     6.4462,     14.700,    4.218198e-03
 237,     6.4316,     14.700,    4.052929e-03
 238,     6.4164,     13.918,    3.622117e-03
 239,     6.4019,     14.579,    3.391108e-03
 240,     6.3810,     14.700,    5.063402e-03
 241,     6.3636,     14.700,    6.228418e-03
 242,     6.3487,     14.700,    3.139573e-03
 243,     6.3323,     14.700,    4.037585e-03
 244,     6.3242,     14.700,    4.134362e-03
 245,     6.3099,     14.700,    2.466802e-03
 246,     6.2988,     14.700,    3.934316e-03
 247,     6.2882,      2.772,    5.226388e-04
 248,     6.2834,     14.700,    2.603948e-03
 249,     6.2753,     14.700,    2.200739e-03
 250,     6.2630,      2.140,    6.796529e-04
 251,     6.2554,     14.700,    4.969638e-03
 252,     6.2434,     14.700,    3.396035e-03
 253,     6.2292,     14.700,    3.974720e-03
 254,     6.2064,     14.700,    3.692640e-03
 255,     6.1953,     14.700,    3.407325e-03
 256,     6.1660,     14.700,    4.305394e-03
 257,     6.1482,     14.700,    3.711227e-03
 258,     6.1362,     14.700,    5.592205e-03
 259,     6.1223,     14.700,    5.001657e-03
 260,     6.1071,     14.700,    4.429924e-03
 261,     6.0926,     14.700,    3.882341e-03
 262,     6.0736,     14.700,    6.084760e-03
 263,     6.0440,     14.700,    5.453762e-03
 264,     6.0254,     14.700,    5.810190e-03
 265,     6.0125,     12.890,    2.705005e-03
 266,     6.0019,      6.863,    1.337736e-03
 267,     5.9961,     14.146,    3.429318e-03
 268,     5.9863,     14.700,    5.236311e-03
 269,     5.9785,      1.448,    5.352055e-04
 270,     5.9727,     10.560,    2.406930e-03
 271,     5.9659,     11.912,    2.572129e-03
 272,     5.9589,      8.560,    2.546630e-03
 273,     5.9499,     14.700,    4.038205e-03
 274,     5.9410,     12.827,    3.312442e-03
 275,     5.9360,      7.061,    1.579490e-03
 276,     5.9241,     13.100,    3.040469e-03
 277,     5.9155,     14.700,    4.319018e-03
 278,     5.9050,     14.700,    3.178789e-03
 279,     5.8935,     14.700,    2.377558e-03
 280,     5.8826,     14.700,    2.822872e-03
 281,     5.8676,     14.700,    2.884657e-03
 282,     5.8532,     14.700,    3.976686e-03
 283,     5.8458,      8.276,    1.897236e-03
 284,     5.8383,     11.714,    2.760619e-03
 285,     5.8294,     14.700,    4.250195e-03
 286,     5.8202,     14.700,    2.781868e-03
 287,     5.8107,     14.700,    3.339790e-03
 288,     5.8026,     14.700,    1.771568e-03
 289,     5.7928,     11.584,    2.469584e-03
 290,     5.7846,      6.063,    1.015389e-03
 291,     5.7770,     14.700,    2.677984e-03
 292,     5.7692,     14.700,    4.093043e-03
 293,     5.7610,     10.005,    1.589517e-03
 294,     5.7479,     14.700,    5.050638e-03
 295,     5.7323,     14.700,    5.425278e-03
 296,     5.7138,     14.700,    4.676579e-03
 297,     5.6884,     14.700,    4.037311e-03
 298,     5.6699,     14.700,    3.862844e-03
 299,     5.6599,     14.700,    4.322184e-03
 300,     5.6464,     11.599,    2.570467e-03
 301,     5.6409,     14.094,    1.279898e-03
 302,     5.6375,      3.996,    1.408630e-03
 303,     5.6329,      6.428,    1.434506e-03
 304,     5.6267,     12.872,    3.161830e-03
 305,     5.6084,     14.700,    4.615787e-03
 306,     5.5974,     14.700,    5.142153e-03
 307,     5.5806,     14.700,    4.597710e-03
 308,     5.5689,     14.700,    3.534962e-03
 309,     5.5555,     14.700,    3.768350e-03
 310,     5.5450,     14.700,    3.717535e-03
 311,     5.5318,     14.700,    4.064633e-03
 312,     5.5263,     11.872,    3.898623e-03
 313,     5.5170,     14.700,    4.332344e-03
 314,     5.5076,     14.700,    5.595470e-03
 315,     5.4949,     14.700,    5.314048e-03
 316,     5.4822,     14.700,    4.380181e-03
 317,     5.4713,     14.700,    3.840687e-03
 318,     5.4622,     14.700,    5.313110e-03
 319,     5.4474,     14.700,    6.818350e-03
 320,     5.4204,     14.700,    6.774802e-03
 321,     5.4077,     14.700,    5.930102e-03
 322,     5.3951,     14.700,    5.555326e-03
 323,     5.3835,     14.700,    6.515554e-03
 324,     5.3671,     14.700,    6.070036e-03
 325,     5.3570,     14.700,    3.128464e-03
 326,     5.3450,     14.700,    2.321507e-03
 327,     5.3347,     14.700,    4.528651e-03
 328,     5.3211,     14.700,    4.037770e-03
 329,     5.3151,      7.374,    2.234027e-03
 330,     5.3059,     14.700,    2.072496e-03
 331,     5.2928,     14.700,    2.292571e-03
 332,     5.2824,     14.700,    2.848452e-03
 333,     5.2639,     14.700,    3.740021e-03
 334,     5.2513,     14.700,    2.080236e-03
 335,     5.2406,     14.700,    4.548444e-03
 336,     5.2329,     14.700,    5.515513e-03
 337,     5.2212,     14.700,    5.581531e-03
 338,     5.2117,     14.700,    4.259060e-03
 339,     5.2040,     14.700,    3.504348e-03
 340,     5.1915,     12.831,    3.887232e-03
 341,     5.1852,      8.326,    1.013813e-03
 342,     5.1820,      4.557,    1.175105e-03
 343,     5.1745,     12.968,    3.347098e-03
 344,     5.1689,     11.206,    1.900937e-03
 345,     5.1593,     14.700,    4.017312e-03
 346,     5.1495,     14.700,    5.336039e-03
 347,     5.1352,     14.700,    5.202244e-03
 348,     5.1200,     14.700,    4.909004e-03
 349,     5.1064,     14.700,    5.446460e-03
 350,     5.0901,     14.700,    5.479595e-03
 351,     5.0731,      8.771,    3.038715e-03
 352,     5.0659,     14.387,    3.785839e-03
 353,     5.0572,     14.700,    5.076151e-03
 354,     5.0456,     14.700,    3.763788e-03
 355,     5.0359,     14.700,    3.995409e-03
 356,     5.0236,      9.180,    1.882387e-03
 357,     5.0178,      6.126,    2.633602e-03
 358,     5.0129,     14.700,    1.975772e-03
 359,     5.0039,     14.700,    4.392987e-03
 360,     4.9975,      6.723,    1.016437e-03
 361,     4.9901,     14.700,    3.690614e-03
 362,     4.9780,     14.700,    2.564689e-03
 363,     4.9685,     14.700,    3.083304e-03
 364,     4.9552,     14.700,    2.983787e-03
 365,     4.9398,     14.700,    3.714392e-03
 366,     4.9257,     14.700,    4.511788e-03
 367,     4.9157,      5.177,    1.230606e-03
 368,     4.9075,     11.187,    2.083929e-03
 369,     4.8993,      9.018,    2.165192e-03
 370,     4.8907,     14.700,    3.001373e-03
 371,     4.8766,     14.700,    5.693176e-03
 372,     4.8647,     14.700,    3.160943e-03
 373,     4.8522,     14.700,    4.531052e-03
 374,     4.8353,     14.700,    4.649695e-03
 375,     4.8230,     14.700,    3.673136e-03
 376,     4.8126,     14.700,    4.710265e-03
 377,     4.8051,     14.700,    1.420392e-01
 378,     4.7984,     14.700,    1.374671e-01
 379,     4.7919,     14.700,    1.379597e-01
 380,     4.7853,     14.700,    1.460093e-01
 381,     4.7783,      9.216,    7.458531e-02
 382,     4.7659,     14.700,    1.932506e-01
 383,     4.7568,     14.700,    1.795975e-01
 384,     4.7477,     14.700,    1.758009e-01
 385,     4.7385,     14.700,    1.765937e-01
 386,     4.7296,     14.700,    1.763721e-01
 387,     4.7194,      9.297,    2.028177e-03
 388,     4.7079,     14.700,    3.646079e-03
 389,     4.7006,     14.700,    2.111078e-03
 390,     4.6918,     14.137,    3.595886e-03
 391,     4.6796,     14.700,    2.801641e-03
 392,     4.6705,     14.700,    4.891337e-03
 393,     4.6629,      6.376,    1.112115e-03
 394,     4.6560,      2.472,    8.264960e-04
 395,     4.6497,     14.226,    4.063345e-03
 396,     4.6372,     14.700,    4.350372e-03
 397,     4.6270,     14.700,    3.895121e-03
 398,     4.6160,     14.700,    3.279109e-03
 399,     4.6089,     14.700,    3.998079e-03
 400,     4.5945,     14.700,    6.260858e-03
 401,     4.5826,      1.114,    5.886901e-04
 402,     4.5762,     11.412,    3.557801e-03
 403,     4.5703,      2.204,    6.838891e-04
 404,     4.5639,      8.293,    2.316260e-03
 405,     4.5606,      0.000,    2.890243e-04
 406,     4.5518,     14.700,    5.078798e-03
 407,     4.5345,     14.700,    5.460728e-03
 408,     4.5215,     14.700,    3.914961e-03
 409,     4.5032,     14.700,    4.402442e-03
 410,     4.4908,     14.700,    3.602857e-03
 411,     4.4812,     14.700,    3.017577e-03
 412,     4.4738,     14.700,    2.701172e-03
 413,     4.4633,     14.700,    5.182689e-03
 414,     4.4549,     14.700,    2.995600e-03
 415,     4.4476,     14.700,    4.755307e-03
 416,     4.4389,     13.580,    4.026358e-03
 417,     4.4292,     14.700,    5.809998e-03
 418,     4.4083,     14.700,    6.757545e-03
 419,     4.3972,     14.700,    5.029738e-03
 420,     4.3846,     14.700,    5.870058e-03
 421,     4.3656,     14.700,    6.111431e-03
 422,     4.3555,     14.700,    7.199134e-03
 423,     4.3402,     14.700,    7.757859e-03
 424,     4.3283,     14.700,    3.293689e-03
 425,     4.3159,     14.700,    4.090772e-03
 426,     4.3001,     14.700,    3.748432e-03
 427,     4.2874,     14.700,    3.562902e-03
 428,     4.2693,     14.700,    4.122097e-03
 429,     4.2594,      8.307,    1.762818e-03
 430,     4.2492,     14.344,    2.214857e-03
 431,     4.2421,      5.638,    1.355656e-03
 432,     4.2334,     14.700,    4.531492e-03
 433,     4.2216,     14.700,    4.063153e-03
