index,   freq_ppm,   decay_hz, amplitude
   1,     9.0902,     14.700,    5.799530e-03
   2,     9.0799,     14.700,    5.194211e-03
   3,     9.0682,     14.700,    6.512848e-03
   4,     9.0513,     14.700,    5.540453e-03
   5,     9.0397,     14.700,    5.314539e-03
   6,     9.0206,     14.700,    7.591618e-03
   7,     9.0095,     14.700,    6.094231e-03
   8,     9.0010,     14.700,    4.174640e-03
   9,     8.9903,     14.700,    4.774013e-03
  10,     8.9802,     14.700,    4.558890e-03
  11,     8.9715,      9.242,    2.531758e-03
  12,     8.9637,     14.700,    6.934348e-03
  13,     8.9605,     11.145,    2.843355e-03
  14,     8.9502,     14.700,    4.424789e-03
  15,     8.9440,     14.700,    3.023228e-03
  16,     8.9291,     14.700,    5.595899e-03
  17,     8.9152,     14.700,    4.692338e-03
  18,     8.9012,     14.700,    3.659635e-03
  19,     8.8916,     14.700,    4.139516e-03
  20,     8.8737,     14.700,    6.172738e-03
  21,     8.8609,     14.700,    5.234912e-03
  22,     8.8477,     14.700,    4.740563e-03
  23,     8.8295,     14.700,    4.225543e-03
  24,     8.8211,     10.067,    2.987992e-03
  25,     8.8110,     14.700,    3.520817e-03
  26,     8.7935,     14.700,    2.888793e-03
  27,     8.7830,     14.700,    3.940020e-03
  28,     8.7695,     14.700,    6.967009e-03
  29,     8.7550,     14.700,    6.972256e-03
  30,     8.7387,     14.700,    5.825619e-03
  31,     8.7306,     14.700,    4.750078e-03
  32,     8.7192,     14.700,    5.523798e-03
  33,     8.7107,     14.700,    6.835246e-03
  34,     8.6969,     14.700,    8.713529e-03
  35,     8.6812,     14.700,    8.742708e-03
  36,     8.6610,     14.700,    8.113509e-03
  37,     8.6420,     14.700,    7.864333e-03
  38,     8.6225,     14.700,    6.586810e-03
  39,     8.6103,     14.700,    7.668675e-03
  40,     8.5966,     14.700,    6.419101e-03
  41,     8.5855,     14.700,    4.544383e-03
  42,     8.5761,     14.700,    2.713375e-03
  43,     8.5678,     14.700,    3.838431e-03
  44,     8.5631,     14.700,    8.401607e-03
  45,     8.5533,      4.006,    1.710494e-03
  46,     8.5454,     14.700,    2.459537e-03
  47,     8.5394,     14.700,    4.111041e-03
  48,     8.5315,      4.263,    1.388711e-03
  49,     8.5233,     12.403,    3.758023e-03
  50,     8.5156,      7.930,    3.280417e-03
  51,     8.5084,     11.482,    3.318319e-03
  52,     8.4982,     14.700,    2.805612e-03
  53,     8.4896,     14.700,    3.479427e-03
  54,     8.4706,     14.700,    3.932647e-03
  55,     8.4465,      6.965,    2.452122e-01
  56,     8.4450,      7.222,    2.759375e-01
  57,     8.4422,     12.386,    5.915496e-02
  58,     8.4377,     14.700,    3.942209e-02
  59,     8.4285,     14.700,    1.459252e-02
  60,     8.4148,     14.700,    1.023726e-02
  61,     8.3976,     14.700,    1.051570e-02
  62,     8.3716,     14.700,    3.522847e-03
  63,     8.3616,     14.700,    5.455800e-03
  64,     8.3461,     14.700,    4.213320e-03
  65,     8.3362,     14.700,    3.425102e-03
  66,     8.3204,     14.700,    9.731504e-03
  67,     8.3103,     11.938,    2.736193e-03
  68,     8.3013,      8.413,    3.028396e-03
  69,     8.2938,      8.728,    2.152233e-03
  70,     8.2894,     14.700,    7.836101e-03
  71,     8.2706,     14.700,    7.865909e-03
  72,     8.2515,     14.700,    6.964706e-03
  73,     8.2257,     14.700,    9.066375e-03
  74,     8.2061,     14.700,    7.370881e-03
  75,     8.1783,     14.700,    7.423663e-03
  76,     8.1576,     14.700,    7.342334e-03
  77,     8.1288,     14.700,    6.491328e-03
  78,     8.1132,     14.700,    6.407041e-03
  79,     8.0987,     14.700,    4.958755e-03
  80,     8.0864,     14.700,    5.446538e-03
  81,     8.0775,     14.700,    4.366301e-03
  82,     8.0683,     14.700,    5.088465e-03
  83,     8.0555,     14.700,    5.653371e-03
  84,     8.0400,     14.700,    5.554287e-03
  85,     8.0169,     14.700,    7.293454e-03
  86,     7.9982,     14.700,    5.400439e-03
  87,     7.9728,     14.700,    6.338874e-03
  88,     7.9460,     14.700,    6.070273e-03
  89,     7.9236,     14.700,    6.268587e-03
  90,     7.9121,     11.789,    3.829082e-03
  91,     7.9080,      5.120,    7.744578e-04
  92,     7.9014,     12.262,    3.330255e-03
  93,     7.8959,     14.700,    2.985640e-03
  94,     7.8843,      7.800,    3.434967e-03
  95,     7.8659,     14.700,    7.696485e-03
  96,     7.8572,     14.700,    6.827571e-03
  97,     7.8336,     14.700,    5.333978e-03
  98,     7.8225,     14.700,    6.296889e-03
  99,     7.8014,     14.700,    5.949328e-03
 100,     7.7854,     14.700,    7.801722e-03
 101,     7.7690,      7.653,    2.408718e-03
 102,     7.7614,     14.700,    4.813511e-03
 103,     7.7478,     14.700,    5.054167e-03
 104,     7.7354,     14.700,    5.885394e-03
 105,     7.7243,     14.700,    4.911081e-03
 106,     7.7107,     14.700,    5.597177e-03
 107,     7.6975,     14.700,    4.130346e-03
 108,     7.6877,     14.700,    4.298701e-03
 109,     7.6703,     14.700,    3.428666e-03
 110,     7.6408,     14.700,    4.070492e-03
 111,     7.6259,     14.700,    3.883185e-03
 112,     7.6125,     14.700,    3.985778e-03
 113,     7.5976,      9.026,    2.210784e-03
 114,     7.5895,      9.311,    2.249281e-03
 115,     7.5796,     14.700,    2.977373e-03
 116,     7.5715,     14.700,    2.588241e-03
 117,     7.5593,     14.700,    3.827262e-03
 118,     7.5534,     14.700,    4.052821e-03
 119,     7.5402,     14.700,    3.932836e-03
 120,     7.5294,     14.700,    4.282576e-03
 121,     7.5201,     10.558,    2.335642e-03
 122,     7.5055,     14.700,    4.245486e-03
 123,     7.4861,     12.170,    3.679432e-03
 124,     7.4808,      9.591,    3.884932e-03
 125,     7.4719,     14.700,    4.140628e-03
 126,     7.4626,     14.700,    4.042132e-03
 127,     7.4569,      4.315,    9.819224e-04
 128,     7.4489,     14.700,    5.637485e-03
 129,     7.4325,     14.700,    4.145721e-03
 130,     7.4176,     14.700,    4.383701e-03
 131,     7.4024,     14.700,    4.610285e-03
 132,     7.3890,     14.700,    4.739148e-03
 133,     7.3762,     14.700,    5.341514e-03
 134,     7.3607,     14.700,    5.601365e-03
 135,     7.3502,      8.068,    1.932340e-03
 136,     7.3413,      8.060,    1.805391e-03
 137,     7.3347,      4.913,    1.365404e-03
 138,     7.3306,     14.700,    3.897348e-03
 139,     7.3216,      4.475,    1.140714e-03
 140,     7.3150,     14.700,    4.497335e-03
 141,     7.3067,     14.700,    5.315992e-03
 142,     7.2927,     14.700,    4.858393e-03
 143,     7.2789,     14.700,    3.279194e-03
 144,     7.2708,     14.700,    4.985468e-03
 145,     7.2601,     14.700,    3.438869e-03
 146,     7.2503,     14.700,    3.455454e-03
 147,     7.2382,     14.700,    4.974356e-03
 148,     7.2303,     14.700,    4.609412e-03
 149,     7.2049,     14.700,    6.066858e-03
 150,     7.1884,     14.700,    6.816084e-03
 151,     7.1731,     14.700,    5.965715e-03
 152,     7.1626,      3.873,    1.488821e-03
 153,     7.1560,      5.248,    1.817032e-03
 154,     7.1492,      6.361,    1.865620e-03
 155,     7.1435,      6.822,    1.306382e-03
 156,     7.1363,     14.700,    5.957565e-03
 157,     7.1284,     14.700,    4.742181e-03
 158,     7.1204,     14.700,    4.854735e-03
 159,     7.1115,      7.790,    2.931385e-03
 160,     7.1036,     14.700,    4.803861e-03
 161,     7.0973,      6.726,    2.178236e-03
 162,     7.0892,     14.700,    5.471072e-03
 163,     7.0780,     14.700,    1.032641e-02
 164,     7.0685,     14.700,    5.795683e-03
 165,     7.0572,     14.700,    6.714679e-03
 166,     7.0407,     14.700,    5.359450e-03
 167,     7.0252,     14.700,    5.140169e-03
 168,     7.0138,     14.700,    4.908763e-03
 169,     6.9981,     14.700,    5.537009e-03
 170,     6.9848,     14.700,    5.564668e-03
 171,     6.9752,     14.700,    4.680965e-03
 172,     6.9572,     14.700,    6.658410e-03
 173,     6.9440,     14.700,    3.235888e-03
 174,     6.9297,     14.700,    6.928955e-03
 175,     6.9135,     14.700,    6.043101e-03
 176,     6.8988,     14.700,    4.483219e-03
 177,     6.8922,     14.700,    3.089732e-03
 178,     6.8876,      6.592,    1.724497e-03
 179,     6.8799,      7.692,    2.178957e-03
 180,     6.8728,      2.019,    4.224859e-04
 181,     6.8647,     10.946,    2.765819e-03
 182,     6.8573,      6.502,    1.931245e-03
 183,     6.8510,      9.922,    2.267054e-03
 184,     6.8439,      8.163,    1.942882e-03
 185,     6.8318,      5.385,    1.608514e-03
 186,     6.8274,      6.305,    2.205938e-03
 187,     6.8097,     14.700,    5.211664e-03
 188,     6.7980,     14.700,    5.572148e-03
 189,     6.7793,     14.700,    3.852355e-03
 190,     6.7686,     14.700,    4.369736e-03
 191,     6.7537,     14.700,    4.699842e-03
 192,     6.7401,     14.700,    4.925587e-03
 193,     6.7204,     14.700,    3.724311e-03
 194,     6.7087,     14.700,    3.634824e-03
 195,     6.7008,     14.700,    4.398982e-03
 196,     6.6833,     14.700,    3.340166e-03
 197,     6.6750,     14.700,    3.133458e-03
 198,     6.6600,     14.700,    5.024750e-03
 199,     6.6505,     14.700,    5.053387e-03
 200,     6.6362,     14.700,    3.741228e-03
 201,     6.6280,     14.700,    3.446722e-03
 202,     6.6194,     14.700,    6.085939e-03
 203,     6.6113,     10.935,    3.006156e-03
 204,     6.6016,     14.700,    6.325445e-03
 205,     6.5914,     14.700,    6.756530e-03
 206,     6.5758,     14.700,    7.542727e-03
 207,     6.5626,     14.700,    6.976973e-03
 208,     6.5505,     14.700,    5.951407e-03
 209,     6.5410,     14.700,    5.453672e-03
 210,     6.5282,     14.700,    6.988544e-03
 211,     6.5213,      4.961,    1.694678e-03
 212,     6.5124,      8.016,    2.377470e-03
 213,     6.5039,      4.403,    1.624046e-03
 214,     6.4981,      6.276,    2.310152e-03
 215,     6.4906,     12.051,    4.166490e-03
 216,     6.4837,     14.700,    4.068702e-03
 217,     6.4751,      7.520,    2.906756e-03
 218,     6.4714,      2.093,    5.147104e-04
 219,     6.4625,     14.700,    5.711347e-03
 220,     6.4425,     14.700,    3.754637e-03
 221,     6.4281,     14.700,    2.818928e-03
 222,     6.4186,     14.700,    4.655496e-03
 223,     6.4081,     14.700,    4.486355e-03
 224,     6.3963,     14.700,    3.347157e-03
 225,     6.3834,     14.399,    6.375385e-03
 226,     6.3694,     13.844,    4.838680e-03
 227,     6.3623,     12.495,    6.606878e-03
 228,     6.3571,     10.033,    2.953060e-03
 229,     6.3457,     14.257,    5.510442e-03
 230,     6.3359,     13.569,    3.606277e-03
 231,     6.3223,     14.700,    4.434054e-03
 232,     6.3076,     14.700,    3.593151e-03
 233,     6.2994,     14.700,    4.257424e-03
 234,     6.2847,     14.700,    5.204917e-03
 235,     6.2729,     14.700,    6.537100e-03
 236,     6.2575,     14.700,    5.241646e-03
 237,     6.2510,     14.700,    4.203863e-03
 238,     6.2379,     14.700,    2.625332e-03
 239,     6.2280,     14.700,    2.963336e-03
 240,     6.2128,     14.700,    3.746859e-03
 241,     6.1915,     14.700,    4.086749e-03
 242,     6.1698,     14.700,    5.785189e-03
 243,     6.1574,     14.700,    3.837290e-03
 244,     6.1506,     14.700,    3.243621e-03
 245,     6.1403,     14.700,    3.750473e-03
 246,     6.1300,     14.700,    3.771001e-03
 247,     6.1199,     14.700,    4.819098e-03
 248,     6.1098,     14.700,    4.555227e-03
 249,     6.0927,     14.700,    4.200802e-03
 250,     6.0802,     14.700,    4.477043e-03
 251,     6.0656,     14.700,    4.539346e-03
 252,     6.0484,     14.700,    3.882408e-03
 253,     6.0363,     14.700,    4.054874e-03
 254,     6.0228,     14.700,    5.890295e-03
 255,     6.0169,      7.021,    2.410798e-03
 256,     6.0103,     12.057,    3.508338e-03
 257,     6.0000,     12.903,    3.138615e-03
 258,     5.9875,      9.381,    3.209653e-03
 259,     5.9804,     14.071,    3.638408e-03
 260,     5.9752,      9.494,    1.845001e-03
 261,     5.9712,      6.033,    2.053529e-03
 262,     5.9632,     14.700,    4.759547e-03
 263,     5.9533,      3.616,    9.858189e-04
 264,     5.9474,      4.175,    8.908814e-04
 265,     5.9401,     12.994,    4.025389e-03
 266,     5.9324,      6.013,    2.185980e-03
 267,     5.9241,     14.700,    4.776345e-03
 268,     5.9102,     11.761,    3.918880e-03
 269,     5.9008,     14.700,    2.139903e-03
 270,     5.8927,     11.130,    2.986088e-03
 271,     5.8848,     14.377,    2.175895e-03
 272,     5.8717,     14.700,    4.111405e-03
 273,     5.8595,     14.700,    3.900900e-03
 274,     5.8465,     14.700,    5.074916e-03
 275,     5.8202,     14.700,    6.082270e-03
 276,     5.8071,     14.700,    5.747441e-03
 277,     5.7937,     10.480,    3.803627e-03
 278,     5.7864,      6.060,    2.273971e-03
 279,     5.7822,      1.585,    5.060803e-04
 280,     5.7762,     11.921,    3.259647e-03
 281,     5.7662,      8.718,    1.821394e-03
 282,     5.7594,     14.700,    3.769248e-03
 283,     5.7471,     14.700,    2.371853e-03
 284,     5.7381,     14.700,    2.604797e-03
 285,     5.7315,      7.070,    1.776845e-03
 286,     5.7235,     14.700,    3.921440e-03
 287,     5.7077,     14.700,    4.390293e-03
 288,     5.6963,      7.988,    1.974592e-03
 289,     5.6880,      5.168,    1.418683e-03
 290,     5.6799,     14.700,    3.979692e-03
 291,     5.6714,      4.821,    1.437985e-03
 292,     5.6625,     14.700,    5.696410e-03
 293,     5.6469,     14.700,    4.911494e-03
 294,     5.6367,      9.925,    2.203874e-03
 295,     5.6324,     10.432,    1.856014e-03
 296,     5.6260,      5.044,    1.730078e-03
 297,     5.6171,     14.700,    4.754035e-03
 298,     5.6036,     14.700,    3.833522e-03
 299,     5.5898,     14.700,    3.476792e-03
 300,     5.5816,     14.700,    3.201471e-03
 301,     5.5686,     14.700,    4.881870e-03
 302,     5.5526,     14.700,    4.522222e-03
 303,     5.5331,     14.700,    3.746280e-03
 304,     5.5265,      5.037,    1.388068e-03
 305,     5.5177,     14.700,    4.356904e-03
 306,     5.5032,     14.700,    4.106423e-03
 307,     5.4867,     14.700,    4.563866e-03
 308,     5.4738,     14.700,    3.172569e-03
 309,     5.4583,     14.700,    2.938638e-03
 310,     5.4515,      3.825,    1.372726e-03
 311,     5.4454,      7.193,    6.326607e-04
 312,     5.4405,     10.735,    2.031269e-03
 313,     5.4307,     10.374,    3.971496e-03
 314,     5.4226,      7.254,    2.232374e-03
 315,     5.4153,      9.626,    2.698048e-03
 316,     5.4065,     14.398,    3.299518e-03
 317,     5.3970,      2.377,    5.894290e-04
 318,     5.3911,     14.700,    3.968270e-03
 319,     5.3834,     14.700,    2.548756e-03
 320,     5.3704,     11.608,    2.220117e-03
 321,     5.3583,     14.700,    3.824076e-03
 322,     5.3477,     13.591,    2.891381e-03
 323,     5.3378,     13.383,    2.229375e-03
 324,     5.3309,     14.700,    3.481185e-03
 325,     5.3143,     14.700,    3.838830e-03
 326,     5.3040,     14.700,    4.594562e-03
 327,     5.2784,     14.700,    6.482284e-03
 328,     5.2609,     14.700,    4.540918e-03
 329,     5.2414,     14.700,    3.103720e-03
 330,     5.2261,     11.954,    3.204589e-02
 331,     5.2215,     10.508,    2.706102e-02
 332,     5.2169,     14.700,    4.036926e-03
 333,     5.1750,      3.219,    9.517673e-03
 334,     5.1734,      5.337,    2.587605e-02
 335,     5.1716,     13.298,    1.499603e-01
 336,     5.1472,     14.133,    5.916702e-03
 337,     5.1374,      5.888,    1.478013e-03
 338,     5.1278,     14.700,    3.537402e-03
 339,     5.1154,     14.700,    3.926401e-03
 340,     5.1050,     14.700,    4.207461e-03
 341,     5.0976,     14.700,    1.949491e-03
 342,     5.0925,      4.511,    1.216914e-03
 343,     5.0856,      3.653,    9.325602e-04
 344,     5.0782,     11.371,    3.569755e-03
 345,     5.0739,     14.700,    6.237186e-03
 346,     5.0630,     14.700,    6.153124e-03
 347,     5.0517,     14.700,    4.100381e-03
 348,     5.0403,     14.700,    4.079257e-03
 349,     5.0191,     14.700,    5.749025e-03
 350,     5.0049,     14.700,    4.141219e-03
 351,     4.9934,      9.289,    2.316748e-03
 352,     4.9879,     13.860,    4.596990e-03
 353,     4.9784,     13.819,    2.411637e-03
 354,     4.9692,      5.777,    2.966122e-03
 355,     4.9615,     14.700,    2.537832e-03
 356,     4.9539,      5.797,    2.105895e-03
 357,     4.9467,      4.625,    1.340035e-03
 358,     4.9417,      7.844,    2.544606e-03
 359,     4.9350,      9.854,    2.388614e-03
 360,     4.9288,     13.220,    3.562453e-03
 361,     4.9148,     14.700,    2.756495e-03
 362,     4.9077,      6.576,    1.724552e-03
 363,     4.8995,     14.700,    5.041926e-03
 364,     4.8907,     13.895,    4.100518e-02
 365,     4.8876,     14.700,    1.681154e-02
 366,     4.8724,     14.700,    4.933656e-03
 367,     4.8627,     14.700,    3.656493e-03
 368,     4.8526,     14.700,    4.757672e-03
 369,     4.8419,     14.700,    4.187958e-03
 370,     4.8241,     14.700,    2.270858e-02
 371,     4.8154,     14.700,    2.398262e-02
 372,     4.8047,     14.700,    2.558427e-02
 373,     4.7945,     14.700,    2.283953e-02
 374,     4.7857,     14.700,    1.919248e-02
 375,     4.7744,      4.213,    3.105578e-02
 376,     4.7728,      1.022,    1.162412e-02
 377,     4.7660,      8.373,    1.878051e-02
 378,     4.7610,     14.700,    2.667695e-02
 379,     4.7558,     14.700,    2.439216e-02
 380,     4.7405,     14.700,    3.730004e-02
 381,     4.7263,     14.700,    3.618905e-02
 382,     4.7102,     14.700,    4.002148e-02
 383,     4.6907,     14.700,    3.674083e-02
 384,     4.6766,     14.700,    3.777887e-02
 385,     4.6612,     14.700,    4.053133e-02
 386,     4.6414,     10.938,    4.684049e-02
 387,     4.6314,     11.260,    5.078160e-02
 388,     4.6192,     14.700,    3.895257e-03
 389,     4.6061,     14.700,    3.721038e-03
 390,     4.5953,     14.700,    2.496568e-03
 391,     4.5851,     14.700,    3.418492e-03
 392,     4.5686,     14.700,    5.622274e-03
 393,     4.5492,     14.700,    5.928043e-03
 394,     4.5372,     14.700,    4.845025e-03
 395,     4.5211,     14.700,    5.138981e-03
 396,     4.5050,     14.700,    6.835907e-03
 397,     4.4918,     14.700,    6.624031e-03
 398,     4.4702,     14.700,    8.023807e-03
 399,     4.4554,     14.700,    5.025824e-03
 400,     4.4456,      7.118,    2.148905e-03
 401,     4.4383,     12.598,    3.505044e-03
 402,     4.4278,      9.777,    3.131219e-03
 403,     4.4196,     14.700,    4.964945e-03
 404,     4.4099,     14.700,    4.349878e-03
 405,     4.4022,      7.729,    3.334951e-03
 406,     4.3952,      5.038,    1.647505e-03
 407,     4.3896,      8.820,    2.219946e-03
 408,     4.3809,     14.700,    5.881149e-03
 409,     4.3645,     14.700,    6.087855e-03
 410,     4.3504,     14.700,    4.864656e-03
 411,     4.3411,     14.700,    5.837246e-03
 412,     4.3291,     14.700,    5.240452e-03
 413,     4.3181,     14.700,    4.965094e-03
 414,     4.3030,      5.529,    1.786012e-03
 415,     4.2957,     14.079,    3.645123e-03
 416,     4.2838,      9.845,    3.090364e-03
 417,     4.2752,     14.700,    3.951588e-03
 418,     4.2652,     14.700,    4.051048e-03
 419,     4.2506,     14.700,    5.189043e-03
 420,     4.2390,     14.700,    2.249758e-03
 421,     4.2320,     14.700,    3.455803e-03
 422,     4.2219,     10.720,    2.899979e-03
 423,     4.2143,     10.872,    3.801219e-03
 424,     4.2056,      9.649,    3.725350e-03
 425,     4.1995,     14.700,    2.545856e-03
 426,     4.1920,     14.700,    4.477480e-03
 427,     4.1793,     14.700,    5.590113e-03
 428,     4.1697,     14.286,    4.981886e-03
 429,     4.1619,     14.700,    5.529284e-03
 430,     4.1488,     14.700,    4.146824e-03
 431,     4.1389,     14.700,    5.343782e-03
 432,     4.1320,     14.700,    9.480738e-03
 433,     4.1264,     14.700,    5.124259e-03
