index,   freq_ppm,   decay_hz, amplitude
   1,     9.0936,     14.700,    3.176799e-03
   2,     9.0826,     14.700,    2.213886e-03
   3,     9.0763,      2.933,    4.061204e-04
   4,     9.0694,      9.818,    2.051097e-03
   5,     9.0532,     14.700,    2.243213e-03
   6,     9.0452,     14.700,    2.071822e-03
   7,     9.0344,     11.180,    1.455633e-03
   8,     9.0285,      1.912,    2.045204e-04
   9,     9.0266,      3.728,    7.252946e-04
  10,     9.0159,     14.700,    3.026161e-03
  11,     9.0119,     14.700,    3.337946e-03
  12,     8.9933,     14.700,    4.098005e-03
  13,     8.9743,     14.700,    3.038819e-03
  14,     8.9608,     14.700,    2.644277e-03
  15,     8.9485,     14.470,    3.395842e-03
  16,     8.9413,     14.700,    3.887024e-03
  17,     8.9285,     14.700,    3.336899e-03
  18,     8.9175,     14.700,    2.598597e-03
  19,     8.9064,     14.700,    2.626065e-03
  20,     8.8963,     14.700,    2.900642e-03
  21,     8.8864,     14.700,    3.447196e-03
  22,     8.8727,     14.700,    3.310161e-03
  23,     8.8530,      9.344,    1.308110e-03
  24,     8.8484,      7.199,    1.030970e-03
  25,     8.8397,      4.544,    5.156848e-04
  26,     8.8374,      7.080,    1.024998e-03
  27,     8.8272,     14.700,    2.435980e-03
  28,     8.8168,      8.664,    1.303823e-03
  29,     8.8100,      4.832,    8.496741e-04
  30,     8.8052,     13.164,    1.094415e-03
  31,     8.7986,     14.675,    4.879817e-03
  32,     8.7850,     14.700,    3.082720e-03
  33,     8.7786,      5.989,    8.518423e-04
  34,     8.7702,     14.700,    3.247326e-03
  35,     8.7559,     14.700,    2.907350e-03
  36,     8.7432,      6.946,    8.384917e-04
  37,     8.7354,     14.700,    1.781787e-03
  38,     8.7274,     14.700,    4.309949e-03
  39,     8.7053,     14.700,    4.643727e-03
  40,     8.6918,     14.700,    1.820300e-03
  41,     8.6821,     14.700,    2.270048e-03
  42,     8.6717,     14.700,    3.207386e-03
  43,     8.6595,     14.700,    2.724274e-03
  44,     8.6524,     14.700,    2.881416e-03
  45,     8.6396,     14.700,    3.386717e-03
  46,     8.6219,     14.700,    2.486472e-03
  47,     8.6097,     14.700,    3.249343e-03
  48,     8.5966,     13.393,    3.376380e-03
  49,     8.5878,     14.700,    2.983544e-03
  50,     8.5745,     14.700,    2.430507e-03
  51,     8.5639,     13.518,    5.754568e-03
  52,     8.5552,     14.700,    1.888208e-03
  53,     8.5440,     14.700,    2.221685e-03
  54,     8.5364,     14.700,    2.528186e-03
  55,     8.5294,     14.700,    2.616462e-03
  56,     8.5242,     14.700,    1.503636e-03
  57,     8.5098,     14.700,    3.022873e-03
  58,     8.4972,     14.700,    3.775233e-03
  59,     8.4472,      6.987,    9.603204e-02
  60,     8.4457,      5.548,    1.620139e-01
  61,     8.4442,      7.694,    1.108082e-01
  62,     8.4412,     14.700,    3.880852e-02
  63,     8.4358,     14.700,    1.963674e-02
  64,     8.4261,     14.700,    1.118623e-02
  65,     8.4215,     14.700,    6.329038e-03
  66,     8.4143,     14.700,    2.941196e-03
  67,     8.4064,     14.700,    2.782220e-03
  68,     8.4022,     14.700,    2.612703e-03
  69,     8.3909,     14.700,    2.796035e-03
  70,     8.3755,     14.700,    2.584272e-03
  71,     8.3648,     14.700,    2.887218e-03
  72,     8.3530,     14.700,    2.189277e-03
  73,     8.3414,      9.051,    1.801672e-03
  74,     8.3336,     11.350,    2.685738e-03
  75,     8.3215,     14.700,    6.595789e-03
  76,     8.3135,     14.700,    2.537856e-03
  77,     8.3057,     14.700,    1.909549e-03
  78,     8.2905,     13.234,    2.288461e-03
  79,     8.2851,      7.370,    1.220761e-03
  80,     8.2693,     14.700,    3.696034e-03
  81,     8.2610,     14.700,    2.964285e-03
  82,     8.2349,     14.700,    4.850309e-03
  83,     8.2275,     14.700,    1.663591e-03
  84,     8.2127,     14.700,    2.398973e-03
  85,     8.2006,     14.700,    2.366470e-03
  86,     8.1837,     14.700,    3.295780e-03
  87,     8.1768,     14.700,    4.094681e-03
  88,     8.1613,     14.700,    3.521410e-03
  89,     8.1495,     14.700,    4.456135e-03
  90,     8.1382,     14.700,    2.449509e-03
  91,     8.1213,     14.700,    2.671751e-03
  92,     8.1136,     14.700,    3.688164e-03
  93,     8.1037,     14.700,    3.702135e-03
  94,     8.0929,     14.700,    2.932195e-03
  95,     8.0864,     11.480,    2.212649e-03
  96,     8.0772,     14.700,    3.920351e-03
  97,     8.0641,     14.700,    2.710850e-03
  98,     8.0503,     14.700,    3.145163e-03
  99,     8.0289,     14.700,    3.072535e-03
 100,     8.0155,     14.700,    2.156375e-03
 101,     8.0022,     14.700,    2.509456e-03
 102,     7.9935,     14.700,    1.901621e-03
 103,     7.9863,     14.700,    2.387119e-03
 104,     7.9700,     14.700,    4.604364e-03
 105,     7.9535,     14.700,    5.091050e-03
 106,     7.9371,      9.163,    2.024313e-03
 107,     7.9280,      6.410,    1.281680e-03
 108,     7.9257,      7.469,    1.276129e-03
 109,     7.9192,      8.247,    1.511160e-03
 110,     7.9086,     14.700,    5.740944e-03
 111,     7.8961,     14.700,    4.016370e-03
 112,     7.8843,     14.700,    4.265537e-03
 113,     7.8570,     14.700,    6.830015e-03
 114,     7.8343,     14.700,    5.135210e-03
 115,     7.8106,     14.700,    4.559507e-03
 116,     7.7951,     14.700,    5.977826e-03
 117,     7.7736,     14.700,    3.348438e-03
 118,     7.7663,      9.827,    1.791796e-03
 119,     7.7551,      9.573,    1.613835e-03
 120,     7.7484,     14.700,    2.364386e-03
 121,     7.7410,     14.700,    2.330966e-03
 122,     7.7317,     14.700,    2.550547e-03
 123,     7.7206,     14.700,    2.301860e-03
 124,     7.7141,     10.811,    3.033330e-03
 125,     7.7032,      6.880,    1.379728e-03
 126,     7.6946,     14.700,    1.975468e-03
 127,     7.6830,     14.700,    1.177382e-03
 128,     7.6675,     14.700,    2.910192e-03
 129,     7.6567,     14.700,    3.014808e-03
 130,     7.6474,     14.700,    5.115690e-03
 131,     7.6375,     14.700,    3.342606e-03
 132,     7.6309,     14.700,    3.982273e-03
 133,     7.6177,     14.700,    3.051086e-03
 134,     7.5987,     14.700,    6.008177e-03
 135,     7.5345,      9.384,    1.407455e-01
 136,     7.5318,      9.970,    2.162395e-02
 137,     7.5248,     11.105,    1.821406e-01
 138,     7.5171,     14.700,    1.002166e-02
 139,     7.4728,     14.700,    3.944467e-03
 140,     7.4609,     14.700,    3.554237e-03
 141,     7.4498,     12.363,    1.451380e-03
 142,     7.4325,     14.700,    1.494369e-03
 143,     7.4233,      6.358,    1.089757e-03
 144,     7.4173,      7.024,    1.926281e-03
 145,     7.4140,      8.269,    2.030889e-03
 146,     7.4077,      6.505,    1.525058e-03
 147,     7.4023,      8.069,    6.557615e-04
 148,     7.3971,      7.712,    1.507179e-03
 149,     7.3873,     14.700,    2.558829e-03
 150,     7.3752,     14.700,    1.969698e-03
 151,     7.3664,     14.700,    2.223339e-03
 152,     7.3562,     14.700,    1.479675e-03
 153,     7.3415,     14.700,    3.580537e-03
 154,     7.3193,     14.700,    2.839609e-03
 155,     7.3098,      9.786,    9.887833e-04
 156,     7.3048,     10.895,    2.358223e-03
 157,     7.2984,      5.888,    7.507473e-04
 158,     7.2918,     10.978,    2.622641e-03
 159,     7.2846,     14.700,    2.829833e-03
 160,     7.2696,     14.700,    2.933156e-03
 161,     7.2581,     14.700,    2.790106e-03
 162,     7.2435,     14.700,    3.977637e-03
 163,     7.2334,     14.700,    2.457053e-03
 164,     7.2202,     14.700,    2.753451e-03
 165,     7.2120,     14.700,    4.374472e-03
 166,     7.1932,     14.700,    4.352726e-03
 167,     7.1813,     14.700,    2.199113e-03
 168,     7.1724,     14.700,    2.988177e-03
 169,     7.1524,     14.700,    3.236054e-03
 170,     7.1441,     14.700,    3.624479e-03
 171,     7.1304,     14.700,    2.683959e-03
 172,     7.1187,      8.813,    1.658615e-03
 173,     7.1164,      0.000,    1.029846e-04
 174,     7.1118,     11.758,    2.401162e-03
 175,     7.1068,     10.712,    1.706292e-03
 176,     7.0953,      4.968,    9.670495e-04
 177,     7.0858,     12.074,    8.681883e-04
 178,     7.0796,     14.028,    5.775246e-03
 179,     7.0743,      9.964,    2.100645e-03
 180,     7.0639,      6.863,    7.872116e-04
 181,     7.0609,      1.722,    2.030117e-04
 182,     7.0607,     14.700,    2.472522e-03
 183,     7.0535,     14.700,    4.326466e-03
 184,     7.0429,      9.120,    1.290219e-03
 185,     7.0314,     14.700,    2.251278e-03
 186,     7.0239,     14.700,    1.929677e-03
 187,     7.0170,     14.700,    2.921369e-03
 188,     7.0048,     14.700,    2.370382e-03
 189,     6.9917,     14.700,    3.361512e-03
 190,     6.9787,      8.232,    1.304039e-03
 191,     6.9674,      6.889,    1.013104e-03
 192,     6.9600,     14.700,    2.661875e-03
 193,     6.9489,     14.700,    2.132593e-03
 194,     6.9390,     14.700,    4.031364e-03
 195,     6.9292,     14.700,    3.176100e-03
 196,     6.9131,     14.700,    8.489459e-04
 197,     6.9060,      3.744,    4.602884e-04
 198,     6.9011,      7.003,    1.406000e-03
 199,     6.8892,     13.358,    3.097534e-03
 200,     6.8757,     14.700,    1.856432e-03
 201,     6.8608,     14.700,    1.821817e-03
 202,     6.8518,     14.700,    1.619383e-03
 203,     6.8425,     14.700,    2.198287e-03
 204,     6.8221,     14.700,    3.519312e-03
 205,     6.7989,     14.700,    3.569380e-03
 206,     6.7839,     14.700,    1.295627e-03
 207,     6.7661,      7.165,    9.090822e-04
 208,     6.7550,     14.700,    2.705879e-03
 209,     6.7474,     11.395,    1.058102e-03
 210,     6.7412,     14.700,    1.975995e-03
 211,     6.7275,     14.700,    3.455141e-03
 212,     6.7097,     14.700,    2.948015e-03
 213,     6.6938,     14.700,    1.934531e-03
 214,     6.6797,     14.700,    2.498570e-03
 215,     6.6705,     14.700,    1.424968e-03
 216,     6.6609,      6.893,    8.756671e-04
 217,     6.6404,      8.201,    1.029046e-03
 218,     6.6325,     14.154,    2.291847e-03
 219,     6.6279,     12.503,    2.468886e-03
 220,     6.6231,      0.786,    4.014061e-04
 221,     6.6175,      8.256,    1.548949e-03
 222,     6.6070,     14.700,    2.599600e-03
 223,     6.6005,     14.700,    3.116973e-03
 224,     6.5857,     14.700,    4.079517e-03
 225,     6.5741,     14.700,    2.619959e-03
 226,     6.5630,     14.700,    2.068146e-03
 227,     6.5492,      9.587,    1.733667e-03
 228,     6.5405,     14.700,    3.481176e-03
 229,     6.5283,     14.700,    2.418581e-03
 230,     6.5129,     14.700,    2.366461e-03
 231,     6.5034,     14.700,    1.640511e-03
 232,     6.4950,     11.497,    3.238536e-03
 233,     6.4837,     14.700,    2.227605e-03
 234,     6.4698,     14.700,    2.068596e-03
 235,     6.4611,     14.700,    1.279309e-03
 236,     6.4526,     14.700,    2.266461e-03
 237,     6.4366,     14.700,    2.616290e-03
 238,     6.4265,     13.926,    2.185279e-03
 239,     6.4195,      6.805,    7.229276e-04
 240,     6.4151,      7.176,    1.286965e-03
 241,     6.4025,     13.332,    2.088737e-03
 242,     6.3927,     14.700,    5.563789e-03
 243,     6.3812,     14.700,    2.649893e-03
 244,     6.3741,     14.700,    3.689721e-03
 245,     6.3627,     14.700,    6.845258e-03
 246,     6.3539,     14.700,    3.358872e-03
 247,     6.3388,      8.262,    2.479684e-03
 248,     6.3312,     14.700,    3.867890e-03
 249,     6.3248,     13.389,    1.848780e-03
 250,     6.3206,     11.349,    2.474820e-03
 251,     6.3111,      8.609,    1.934301e-03
 252,     6.3030,     14.700,    3.409457e-03
 253,     6.2916,     14.700,    4.112117e-03
 254,     6.2737,     14.700,    3.385848e-03
 255,     6.2650,     14.700,    3.272771e-03
 256,     6.2451,     14.700,    2.975866e-03
 257,     6.2297,     14.700,    3.372757e-03
 258,     6.2169,     12.082,    2.656226e-03
 259,     6.2088,     14.700,    2.485134e-03
 260,     6.1986,     14.700,    3.176695e-03
 261,     6.1899,     11.666,    1.393048e-03
 262,     6.1847,     12.497,    1.872380e-03
 263,     6.1742,     14.700,    1.700665e-03
 264,     6.1661,     11.423,    3.049207e-03
 265,     6.1561,     14.700,    3.538392e-03
 266,     6.1455,     14.700,    3.633644e-03
 267,     6.1325,     14.700,    3.349895e-03
 268,     6.1278,      5.902,    6.568857e-04
 269,     6.1218,      8.065,    1.696454e-03
 270,     6.1089,     13.080,    1.833702e-03
 271,     6.0998,      9.143,    1.994278e-03
 272,     6.0855,     14.700,    3.199801e-03
 273,     6.0757,     14.700,    1.983653e-03
 274,     6.0639,     12.191,    1.536341e-03
 275,     6.0549,     14.700,    2.684467e-03
 276,     6.0435,     14.700,    2.634815e-03
 277,     6.0323,     12.644,    2.396446e-03
 278,     6.0265,     12.558,    2.479190e-03
 279,     6.0213,      4.683,    9.725911e-04
 280,     6.0110,     14.700,    3.388741e-03
 281,     5.9926,     14.700,    3.090831e-03
 282,     5.9740,     14.700,    2.916552e-03
 283,     5.9601,     14.700,    3.574163e-03
 284,     5.9418,     14.700,    3.294036e-03
 285,     5.9295,     14.700,    4.308694e-03
 286,     5.9068,     14.700,    5.418167e-03
 287,     5.8976,     14.700,    3.749542e-03
 288,     5.8853,     14.700,    2.754574e-03
 289,     5.8614,     14.700,    3.282196e-03
 290,     5.8306,     11.246,    2.386366e-03
 291,     5.7983,      8.461,    9.037704e-02
 292,     5.7969,      9.136,    6.023193e-02
 293,     5.7883,     10.843,    1.725063e-01
 294,     5.7776,     14.700,    4.225924e-03
 295,     5.7587,     14.700,    3.471256e-03
 296,     5.7324,     14.700,    3.932502e-03
 297,     5.7219,      9.948,    2.033500e-03
 298,     5.7112,      7.050,    1.400264e-03
 299,     5.7077,     10.299,    1.891166e-03
 300,     5.6951,     14.700,    2.068802e-03
 301,     5.6845,     14.700,    5.158742e-03
 302,     5.6749,     14.700,    4.641765e-03
 303,     5.6596,     14.700,    2.789618e-03
 304,     5.6483,     14.700,    2.536381e-03
 305,     5.6365,     14.700,    2.118811e-03
 306,     5.6167,     14.700,    3.365026e-03
 307,     5.6022,      9.179,    1.431489e-03
 308,     5.5927,     14.700,    2.844966e-03
 309,     5.5785,     12.173,    1.910319e-03
 310,     5.5725,     14.700,    2.000222e-03
 311,     5.5576,     12.255,    2.449727e-03
 312,     5.5471,     14.700,    3.043211e-03
 313,     5.5381,     14.700,    4.623266e-03
 314,     5.5211,     14.700,    2.676304e-03
 315,     5.5052,     14.700,    3.643119e-03
 316,     5.4958,     14.700,    2.303895e-03
 317,     5.4853,      8.951,    1.645522e-03
 318,     5.4803,      2.477,    4.223702e-04
 319,     5.4745,     14.700,    3.142182e-03
 320,     5.4616,     12.924,    2.991792e-03
 321,     5.4464,     14.700,    2.243381e-03
 322,     5.4392,     14.700,    3.084644e-03
 323,     5.4271,     14.700,    3.719439e-03
 324,     5.4170,     14.700,    2.745411e-03
 325,     5.3986,     12.883,    2.153129e-03
 326,     5.3895,     14.700,    2.474519e-03
 327,     5.3785,     14.700,    2.260469e-03
 328,     5.3597,     14.700,    3.050659e-03
 329,     5.3456,     14.700,    3.009040e-03
 330,     5.3357,     14.700,    3.259076e-03
 331,     5.3183,     14.526,    3.228470e-03
 332,     5.3068,     11.794,    2.188530e-03
 333,     5.2961,     14.700,    1.788920e-03
 334,     5.2803,     14.700,    3.819451e-03
 335,     5.2693,     14.700,    2.900510e-03
 336,     5.2624,      9.491,    1.389700e-03
 337,     5.2507,     14.700,    3.144427e-03
 338,     5.2383,     14.700,    3.342156e-03
 339,     5.2318,     13.336,    9.569186e-04
 340,     5.2224,      3.839,    4.071091e-04
 341,     5.2133,     14.700,    2.918470e-03
 342,     5.2049,     14.700,    2.543462e-03
 343,     5.2008,      4.831,    7.303427e-04
 344,     5.1911,     11.962,    2.124288e-03
 345,     5.1761,     14.700,    2.772501e-03
 346,     5.1666,      5.343,    6.863648e-04
 347,     5.1600,      9.344,    2.231210e-03
 348,     5.1526,     13.860,    3.244185e-03
 349,     5.1453,     14.700,    1.642725e-03
 350,     5.1369,     14.700,    1.375825e-03
 351,     5.1234,     14.700,    2.274499e-03
 352,     5.1173,      6.797,    1.229588e-03
 353,     5.1020,     14.700,    3.439275e-03
 354,     5.0889,     14.700,    3.563071e-03
 355,     5.0752,     14.700,    4.048414e-03
 356,     5.0523,     14.700,    3.352751e-03
 357,     5.0244,     14.700,    4.901043e-03
 358,     5.0116,     14.700,    3.763015e-03
 359,     5.0052,     12.143,    1.765524e-03
 360,     4.9825,     14.700,    2.442216e-03
 361,     4.9729,     14.700,    2.329588e-03
 362,     4.9593,     14.700,    3.139410e-03
 363,     4.9432,     14.700,    2.518820e-03
 364,     4.9350,     11.891,    2.182644e-03
 365,     4.9279,     14.700,    1.403698e-03
 366,     4.9112,      7.350,    1.158975e-03
 367,     4.9028,      5.124,    1.976167e-04
 368,     4.8962,     14.700,    2.509145e-03
 369,     4.8825,     14.700,    1.238421e-02
 370,     4.8704,     14.700,    9.494528e-03
 371,     4.8573,     14.700,    9.356413e-03
 372,     4.8339,     14.700,    1.127522e-02
 373,     4.8101,     14.700,    1.072216e-02
 374,     4.7931,     14.700,    1.187754e-02
 375,     4.7766,     10.764,    4.977788e-02
 376,     4.7623,     14.700,    1.458861e-02
 377,     4.7541,     14.700,    1.547050e-02
 378,     4.7405,     14.700,    1.207999e-02
 379,     4.7264,     14.700,    1.060791e-02
 380,     4.7138,     14.700,    9.875783e-03
 381,     4.6980,     14.700,    2.851857e-03
 382,     4.6679,     14.700,    2.692096e-03
 383,     4.6553,     14.700,    4.040993e-03
 384,     4.6459,      6.963,    1.628133e-03
 385,     4.6269,      8.914,    2.260282e-03
 386,     4.6159,     14.700,    2.429062e-03
 387,     4.6019,     14.700,    2.866416e-03
 388,     4.5909,     14.700,    2.739582e-03
 389,     4.5752,     14.700,    2.768073e-03
 390,     4.5657,     14.700,    3.085284e-03
 391,     4.5505,     14.700,    2.233621e-03
 392,     4.5371,     14.700,    2.497558e-03
 393,     4.5134,     14.700,    3.481065e-03
 394,     4.5016,     14.700,    4.492675e-03
 395,     4.4886,     14.700,    3.034442e-03
 396,     4.4779,     14.700,    3.664896e-03
 397,     4.4453,     14.700,    3.515675e-03
 398,     4.4354,     14.700,    3.374647e-03
 399,     4.4256,     14.700,    4.196988e-03
 400,     4.4132,     11.427,    1.213651e-03
 401,     4.4075,     11.620,    2.201258e-03
 402,     4.3997,     14.700,    2.684580e-03
 403,     4.3850,     14.700,    2.903137e-03
 404,     4.3788,      7.892,    1.295657e-03
 405,     4.3622,     14.700,    3.922151e-03
 406,     4.3396,     14.700,    3.522311e-03
 407,     4.3249,     14.700,    3.773201e-03
 408,     4.3136,     14.700,    2.418820e-03
 409,     4.3030,     14.700,    3.022101e-03
 410,     4.2946,     11.925,    3.747020e-03
 411,     4.2840,     14.700,    3.147616e-03
 412,     4.2737,     14.700,    1.362441e-03
 413,     4.2625,     14.700,    7.668803e-03
 414,     4.2544,     10.963,    5.620631e-03
 415,     4.2528,      8.984,    5.859216e-03
 416,     4.2446,     11.663,    7.134225e-03
 417,     4.2307,     13.319,    2.430132e-03
 418,     4.2069,     14.700,    1.741586e-03
 419,     4.1760,      7.437,    1.818710e-02
 420,     4.1746,      8.899,    3.171287e-02
 421,     4.1678,     11.024,    6.194996e-02
 422,     4.1639,     10.473,    5.806313e-02
 423,     4.1565,     11.140,    6.540711e-02
 424,     4.1443,     14.700,    7.306056e-03
 425,     4.1271,     14.700,    3.999800e-03
 426,     4.1086,     14.700,    1.746167e-03
 427,     4.0960,     11.102,    1.641133e-03
 428,     4.0693,      6.194,    5.187755e-03
 429,     4.0627,      9.177,    2.510327e-02
 430,     4.0590,     14.458,    6.354199e-02
 431,     4.0557,     14.700,    1.170043e-01
 432,     4.0507,     14.700,    1.286777e-01
 433,     4.0474,     14.363,    5.881419e-02
