index,   freq_ppm,   decay_hz, amplitude
   1,     9.0743,     14.700,    2.777679e-03
   2,     9.0628,     14.700,    2.009623e-03
   3,     9.0423,     14.700,    2.659789e-03
   4,     9.0197,     14.700,    2.392270e-03
   5,     9.0104,     14.700,    1.978795e-03
   6,     8.9916,     14.700,    2.808402e-03
   7,     8.9794,      7.137,    1.353910e-03
   8,     8.9737,     10.403,    1.279289e-03
   9,     8.9662,     14.700,    1.115408e-03
  10,     8.9605,     14.700,    2.728039e-03
  11,     8.9498,      8.968,    1.637100e-03
  12,     8.9406,     14.700,    1.395072e-03
  13,     8.9310,     14.700,    2.688496e-03
  14,     8.9230,      9.163,    1.574058e-03
  15,     8.9140,     14.700,    2.545232e-03
  16,     8.9052,     14.700,    3.056563e-03
  17,     8.8960,     14.700,    2.161337e-03
  18,     8.8771,     14.700,    3.801252e-03
  19,     8.8592,     14.700,    2.061437e-03
  20,     8.8465,     14.700,    2.402961e-03
  21,     8.8267,     14.700,    2.152989e-03
  22,     8.8096,     14.700,    2.164943e-03
  23,     8.7995,     14.700,    2.071110e-03
  24,     8.7916,     14.700,    2.851391e-03
  25,     8.7729,     14.700,    2.887486e-03
  26,     8.7571,     14.700,    1.804200e-03
  27,     8.7450,     14.700,    2.445377e-03
  28,     8.7297,     14.700,    2.106719e-03
  29,     8.7206,     14.700,    1.789681e-03
  30,     8.7103,     14.700,    2.815479e-03
  31,     8.6864,     14.700,    2.757225e-03
  32,     8.6724,     14.700,    2.967154e-03
  33,     8.6596,     14.700,    2.332646e-03
  34,     8.6405,     14.700,    2.910524e-03
  35,     8.6306,     14.700,    2.194928e-03
  36,     8.6196,     14.700,    2.260371e-03
  37,     8.6136,     14.700,    2.681916e-03
  38,     8.6075,      6.103,    8.628835e-04
  39,     8.6046,      0.000,    1.035642e-04
  40,     8.5998,     14.700,    1.861255e-03
  41,     8.5858,     14.700,    1.273343e-03
  42,     8.5788,     14.700,    2.561203e-03
  43,     8.5709,      9.970,    1.194241e-03
  44,     8.5640,     14.700,    6.888872e-03
  45,     8.5560,     14.700,    1.350401e-03
  46,     8.5445,     14.700,    4.368522e-03
  47,     8.5309,     14.700,    3.794641e-03
  48,     8.5203,     14.700,    2.806101e-03
  49,     8.5102,     14.700,    3.496316e-03
  50,     8.4977,     14.700,    2.188494e-03
  51,     8.4772,     14.700,    1.947503e-03
  52,     8.4471,      6.322,    1.069104e-01
  53,     8.4456,      5.627,    1.969165e-01
  54,     8.4440,      9.030,    1.490035e-01
  55,     8.4393,     14.700,    4.122834e-02
  56,     8.4322,     14.700,    1.623504e-02
  57,     8.4164,     14.700,    9.652787e-03
  58,     8.3968,     14.700,    8.180764e-03
  59,     8.3356,     14.700,    1.749391e-03
  60,     8.3207,     11.149,    4.178438e-03
  61,     8.3078,     14.700,    2.087831e-03
  62,     8.2979,     14.700,    1.399414e-03
  63,     8.2899,     14.700,    2.014580e-03
  64,     8.2759,     14.700,    2.128873e-03
  65,     8.2656,      8.544,    8.280072e-04
  66,     8.2588,     14.700,    1.264240e-03
  67,     8.2509,     14.700,    2.459234e-03
  68,     8.2412,      6.387,    1.018185e-03
  69,     8.2362,      9.948,    1.711052e-03
  70,     8.2278,     14.700,    1.874948e-03
  71,     8.2002,     14.700,    1.716291e-03
  72,     8.1921,     14.700,    1.896863e-03
  73,     8.1819,     14.700,    2.081538e-03
  74,     8.1685,     14.700,    1.324735e-03
  75,     8.1509,     14.700,    1.657612e-03
  76,     8.1302,     14.700,    2.236878e-03
  77,     8.1117,     14.700,    1.365323e-03
  78,     8.0982,     14.700,    1.987024e-03
  79,     8.0871,     14.700,    1.965114e-03
  80,     8.0799,     14.700,    1.338339e-03
  81,     8.0692,     14.700,    1.396060e-03
  82,     8.0581,     14.700,    1.733784e-03
  83,     8.0464,     14.700,    3.548554e-03
  84,     8.0364,     14.700,    1.841801e-03
  85,     8.0171,     14.700,    1.478879e-03
  86,     8.0062,     14.700,    1.664567e-03
  87,     7.9926,     14.700,    1.738304e-03
  88,     7.9802,     14.700,    2.917403e-03
  89,     7.9652,     14.700,    2.467604e-03
  90,     7.9557,     14.700,    1.717128e-03
  91,     7.9382,     14.700,    2.239779e-03
  92,     7.9257,     14.700,    2.393492e-03
  93,     7.9110,     14.700,    1.525801e-03
  94,     7.9051,     11.212,    1.861522e-03
  95,     7.8997,     11.977,    1.518940e-03
  96,     7.8945,     14.193,    2.547499e-03
  97,     7.8873,      7.099,    8.521705e-04
  98,     7.8782,     14.700,    1.454078e-03
  99,     7.8758,     14.700,    1.690356e-03
 100,     7.8654,     14.700,    3.649191e-03
 101,     7.8565,     14.700,    4.039772e-03
 102,     7.8469,     14.700,    1.322032e-03
 103,     7.8370,     14.700,    3.711711e-03
 104,     7.8239,     14.700,    1.678493e-03
 105,     7.8120,     14.250,    2.249986e-03
 106,     7.7907,     14.700,    2.900114e-03
 107,     7.7809,     14.700,    1.296561e-03
 108,     7.7714,     14.700,    1.846800e-03
 109,     7.7606,     14.700,    2.011333e-03
 110,     7.7461,     14.700,    1.426685e-03
 111,     7.7375,     14.700,    1.507023e-03
 112,     7.7279,     14.700,    1.843156e-03
 113,     7.7113,     14.700,    1.683180e-03
 114,     7.7025,      9.493,    1.133443e-03
 115,     7.6938,     10.646,    1.306265e-03
 116,     7.6874,     14.700,    2.363466e-03
 117,     7.6712,     14.700,    2.380566e-03
 118,     7.6619,     14.700,    2.083869e-03
 119,     7.6484,     14.700,    4.583525e-03
 120,     7.6328,     14.700,    2.363267e-03
 121,     7.6205,     14.700,    2.428163e-03
 122,     7.6048,     14.700,    2.690567e-03
 123,     7.5937,     14.700,    3.357279e-03
 124,     7.5767,     12.220,    1.670825e-03
 125,     7.5673,      9.846,    7.371061e-04
 126,     7.5598,     12.459,    1.934885e-03
 127,     7.5545,     12.448,    1.963164e-03
 128,     7.5506,     10.908,    1.821293e-03
 129,     7.5426,     14.700,    2.976494e-03
 130,     7.5330,     14.700,    2.307429e-03
 131,     7.5266,     13.466,    1.476592e-03
 132,     7.5203,      7.641,    5.816166e-04
 133,     7.5094,     14.700,    2.507678e-03
 134,     7.4965,     14.700,    2.598482e-03
 135,     7.4910,      3.767,    5.459536e-04
 136,     7.4857,      6.706,    3.507862e-04
 137,     7.4824,     14.700,    3.415333e-03
 138,     7.4729,     14.700,    4.503687e-03
 139,     7.4642,      9.532,    1.721397e-03
 140,     7.4577,     14.700,    2.145910e-03
 141,     7.4506,     14.700,    2.472462e-03
 142,     7.4419,      6.242,    1.322172e-03
 143,     7.4317,     14.646,    2.458948e-03
 144,     7.4257,      6.049,    1.379523e-03
 145,     7.4154,     14.700,    3.198408e-03
 146,     7.4104,      5.213,    7.138504e-04
 147,     7.4077,      0.000,    9.396012e-05
 148,     7.4064,     14.700,    2.061113e-03
 149,     7.3966,     14.700,    1.897519e-03
 150,     7.3841,     14.700,    1.830892e-03
 151,     7.3747,     14.700,    2.868577e-03
 152,     7.3626,     14.700,    3.306009e-03
 153,     7.3477,     14.700,    1.437643e-03
 154,     7.3256,     14.700,    2.813030e-03
 155,     7.3141,     14.700,    3.094651e-03
 156,     7.2983,     14.700,    2.920167e-03
 157,     7.2877,     14.700,    4.478692e-03
 158,     7.2705,     14.700,    4.082576e-03
 159,     7.2517,     14.700,    2.534596e-03
 160,     7.2417,     14.700,    3.427509e-03
 161,     7.2231,     14.700,    3.952098e-03
 162,     7.2013,     14.700,    2.698468e-03
 163,     7.1875,     14.700,    3.334478e-03
 164,     7.1777,     14.700,    3.404378e-03
 165,     7.1647,     14.700,    3.799458e-03
 166,     7.1541,     14.700,    3.567446e-03
 167,     7.1417,     13.622,    1.417223e-03
 168,     7.1343,     14.700,    7.782208e-04
 169,     7.1268,     14.700,    2.600709e-03
 170,     7.1175,     14.700,    1.288448e-03
 171,     7.1113,     11.297,    1.109211e-03
 172,     7.1035,      2.152,    4.284533e-04
 173,     7.0963,     11.025,    1.932651e-03
 174,     7.0791,     14.315,    4.823098e-03
 175,     7.0755,      6.609,    1.147679e-03
 176,     7.0684,     10.307,    1.208963e-03
 177,     7.0604,     14.700,    2.061373e-03
 178,     7.0493,     10.638,    1.981230e-03
 179,     7.0392,      3.304,    4.280655e-04
 180,     7.0348,      9.860,    1.180624e-03
 181,     7.0204,     14.700,    2.609403e-03
 182,     7.0071,     14.700,    2.895020e-03
 183,     6.9961,     14.700,    2.550975e-03
 184,     6.9771,     14.700,    3.281224e-03
 185,     6.9642,     14.700,    1.951321e-03
 186,     6.9541,     14.700,    2.311729e-03
 187,     6.9370,     14.700,    1.829243e-03
 188,     6.9298,     14.700,    2.477923e-03
 189,     6.9190,     14.700,    1.692573e-03
 190,     6.9057,     14.700,    2.254962e-03
 191,     6.8961,     14.700,    1.977350e-03
 192,     6.8747,     14.700,    2.128514e-03
 193,     6.8670,     14.700,    1.756260e-03
 194,     6.8566,     14.700,    2.391679e-03
 195,     6.8393,     14.700,    2.693943e-03
 196,     6.8295,     14.700,    2.311722e-03
 197,     6.8236,     14.700,    1.672181e-03
 198,     6.8054,     14.700,    2.907195e-03
 199,     6.7932,     14.700,    1.982468e-03
 200,     6.7841,     14.700,    1.504625e-03
 201,     6.7735,      7.111,    1.208318e-03
 202,     6.7610,     14.700,    2.192516e-03
 203,     6.7540,     14.700,    1.134942e-03
 204,     6.7456,     14.700,    2.686480e-03
 205,     6.7375,      1.229,    1.079184e-04
 206,     6.7346,     14.700,    2.776673e-03
 207,     6.7254,      4.211,    5.701990e-04
 208,     6.7180,      8.668,    1.269272e-03
 209,     6.7120,     14.700,    1.840924e-03
 210,     6.6999,     14.700,    3.012470e-03
 211,     6.6927,      2.111,    2.963253e-04
 212,     6.6863,     10.200,    1.259341e-03
 213,     6.6763,     10.584,    1.477306e-03
 214,     6.6651,     14.700,    2.571763e-03
 215,     6.6612,      3.345,    5.528965e-04
 216,     6.6541,      9.277,    1.617180e-03
 217,     6.6463,     14.700,    2.174607e-03
 218,     6.6381,     14.700,    1.466170e-03
 219,     6.6311,     14.700,    3.701959e-03
 220,     6.6162,     14.700,    3.119356e-03
 221,     6.6078,     14.700,    2.107545e-03
 222,     6.6011,      8.449,    1.068000e-03
 223,     6.5863,     14.700,    2.207775e-03
 224,     6.5717,     14.700,    2.474734e-03
 225,     6.5615,     14.700,    2.964265e-03
 226,     6.5496,     14.700,    2.359106e-03
 227,     6.5351,     14.700,    3.755066e-03
 228,     6.5306,     14.700,    2.062098e-03
 229,     6.5180,     14.700,    2.209979e-03
 230,     6.5119,      4.021,    2.773286e-04
 231,     6.5079,      2.187,    2.089179e-04
 232,     6.5035,     10.747,    1.110160e-03
 233,     6.4860,     14.700,    2.144951e-03
 234,     6.4753,     14.700,    2.765757e-03
 235,     6.4609,     14.700,    2.309943e-03
 236,     6.4371,     14.700,    2.541150e-03
 237,     6.4271,     14.700,    1.982688e-03
 238,     6.4164,     14.700,    3.049912e-03
 239,     6.4100,      7.103,    8.552930e-04
 240,     6.3999,     14.700,    1.667605e-03
 241,     6.3908,     14.700,    1.866508e-03
 242,     6.3846,     14.180,    1.616086e-03
 243,     6.3716,     14.700,    8.993021e-04
 244,     6.3642,     13.867,    4.929713e-03
 245,     6.3536,     10.794,    1.327620e-03
 246,     6.3433,     14.700,    1.359034e-03
 247,     6.3328,     14.700,    1.555766e-03
 248,     6.3268,      3.424,    5.121242e-04
 249,     6.3130,     14.700,    1.895746e-03
 250,     6.3027,     14.700,    2.762001e-03
 251,     6.2938,     10.825,    1.563134e-03
 252,     6.2874,     10.141,    1.748098e-03
 253,     6.2785,     14.700,    2.809896e-03
 254,     6.2648,     14.700,    2.166959e-03
 255,     6.2509,     14.700,    1.861139e-03
 256,     6.2165,     14.700,    2.837760e-03
 257,     6.2045,     14.700,    3.757273e-03
 258,     6.1813,     14.700,    3.011116e-03
 259,     6.1633,     14.700,    2.558763e-03
 260,     6.1513,     14.700,    2.580623e-03
 261,     6.1355,     14.700,    1.725012e-03
 262,     6.1194,     14.700,    2.387315e-03
 263,     6.1088,     14.700,    2.444281e-03
 264,     6.0791,     14.700,    2.045547e-03
 265,     6.0679,     14.700,    2.282830e-03
 266,     6.0481,     14.700,    2.316809e-03
 267,     6.0364,     14.700,    3.091958e-03
 268,     6.0261,      6.913,    1.012816e-03
 269,     6.0194,      9.461,    9.974537e-04
 270,     6.0064,     14.700,    2.505087e-03
 271,     5.9996,     14.700,    1.596790e-03
 272,     5.9866,     14.700,    2.894550e-03
 273,     5.9724,     14.700,    2.533120e-03
 274,     5.9555,     14.700,    1.833912e-03
 275,     5.9440,     14.700,    1.691834e-03
 276,     5.9334,     14.700,    2.984799e-03
 277,     5.9217,     14.700,    2.335222e-03
 278,     5.9124,     13.749,    1.249724e-03
 279,     5.9024,      6.693,    1.150881e-03
 280,     5.8919,      5.689,    1.025579e-03
 281,     5.8873,      5.496,    7.999060e-04
 282,     5.8831,     10.745,    1.915341e-03
 283,     5.8730,     12.562,    2.038405e-03
 284,     5.8695,      0.000,    1.264766e-04
 285,     5.8648,     14.700,    2.723299e-03
 286,     5.8542,     14.700,    2.175594e-03
 287,     5.8475,      6.509,    8.575216e-04
 288,     5.8355,     14.700,    1.589173e-03
 289,     5.8198,     14.700,    2.523351e-03
 290,     5.8123,     11.897,    2.433933e-03
 291,     5.8034,     14.700,    2.850057e-03
 292,     5.7938,     14.700,    2.534216e-03
 293,     5.7847,     14.700,    3.090452e-03
 294,     5.7742,      9.437,    1.542472e-03
 295,     5.7693,      5.003,    5.505674e-04
 296,     5.7652,     14.700,    3.248328e-03
 297,     5.7529,      8.567,    7.595387e-04
 298,     5.7424,     14.700,    2.767787e-03
 299,     5.7352,     14.700,    1.832178e-03
 300,     5.7234,     14.700,    1.920349e-03
 301,     5.7091,     14.700,    2.834415e-03
 302,     5.6964,     14.700,    2.393384e-03
 303,     5.6838,     14.700,    3.415345e-03
 304,     5.6773,     14.700,    4.456735e-03
 305,     5.6616,     14.700,    1.792032e-03
 306,     5.6465,      9.594,    1.570223e-03
 307,     5.6358,     14.700,    2.393326e-03
 308,     5.6255,     14.700,    1.789008e-03
 309,     5.6130,     14.700,    2.656348e-03
 310,     5.6036,     14.700,    2.157519e-03
 311,     5.5962,     14.700,    2.853350e-03
 312,     5.5881,     12.031,    1.520765e-03
 313,     5.5733,     12.700,    2.160586e-03
 314,     5.5650,     11.020,    1.345432e-03
 315,     5.5576,      4.128,    8.018721e-04
 316,     5.5556,      1.318,    3.112995e-04
 317,     5.5537,      0.000,    1.564618e-04
 318,     5.5466,     14.583,    2.098373e-03
 319,     5.5389,      9.782,    1.550255e-03
 320,     5.5298,     14.700,    1.958322e-03
 321,     5.5215,     14.700,    2.971554e-03
 322,     5.5111,     14.700,    1.934525e-03
 323,     5.4996,      0.890,    2.852493e-04
 324,     5.4941,     14.700,    2.733056e-03
 325,     5.4779,     14.700,    2.351066e-03
 326,     5.4570,     14.700,    2.250776e-03
 327,     5.4493,     14.700,    1.991411e-03
 328,     5.4392,      8.985,    7.682477e-04
 329,     5.4307,     13.736,    1.517900e-03
 330,     5.4215,     14.700,    4.973433e-03
 331,     5.4099,     14.700,    2.391893e-03
 332,     5.3947,     14.700,    1.532841e-03
 333,     5.3840,     14.700,    1.995002e-03
 334,     5.3723,     14.700,    2.395428e-03
 335,     5.3599,     14.700,    2.563311e-03
 336,     5.3516,     14.700,    1.872103e-03
 337,     5.3469,      0.042,    1.229730e-04
 338,     5.3394,     14.700,    1.954706e-03
 339,     5.3290,      9.007,    9.832932e-04
 340,     5.3200,     14.700,    2.967756e-03
 341,     5.3157,      0.974,    3.748221e-04
 342,     5.3082,      4.036,    5.608546e-04
 343,     5.3027,     14.700,    1.064974e-03
 344,     5.2952,     14.700,    2.801260e-03
 345,     5.2879,     14.684,    2.720473e-03
 346,     5.2803,     14.700,    2.511324e-03
 347,     5.2705,     14.700,    2.573577e-03
 348,     5.2591,     13.501,    1.077346e-03
 349,     5.2472,      7.112,    1.238873e-03
 350,     5.2415,     14.700,    1.898958e-03
 351,     5.2282,      7.860,    1.338980e-03
 352,     5.2223,      6.868,    9.349338e-04
 353,     5.2150,     14.126,    2.353525e-03
 354,     5.1885,      9.666,    3.848767e-02
 355,     5.1839,     12.104,    5.485441e-02
 356,     5.1737,     14.700,    4.555089e-03
 357,     5.1627,     14.700,    3.597578e-03
 358,     5.1521,     14.700,    1.955324e-03
 359,     5.1461,      8.773,    1.612338e-03
 360,     5.1345,     14.700,    2.668574e-03
 361,     5.1257,     14.700,    1.162397e-03
 362,     5.1171,     10.771,    1.797639e-03
 363,     5.1078,     10.864,    1.519760e-03
 364,     5.0999,     14.700,    1.943692e-03
 365,     5.0891,     14.700,    2.359101e-03
 366,     5.0774,     14.700,    3.279605e-03
 367,     5.0675,     12.626,    1.426739e-03
 368,     5.0562,     14.700,    1.081638e-03
 369,     5.0417,     14.700,    1.875409e-03
 370,     5.0338,     14.700,    2.345129e-03
 371,     5.0212,     14.700,    2.371439e-03
 372,     5.0110,     12.836,    2.392768e-03
 373,     4.9989,     11.040,    1.861651e-03
 374,     4.9903,     14.700,    2.161466e-03
 375,     4.9850,     14.700,    1.777297e-03
 376,     4.9757,      6.949,    9.381511e-04
 377,     4.9634,     14.700,    2.256606e-03
 378,     4.9516,     14.700,    2.616728e-03
 379,     4.9406,     14.700,    2.036012e-03
 380,     4.9290,     14.700,    2.626321e-03
 381,     4.9116,     14.700,    2.492697e-03
 382,     4.8980,     14.700,    2.595050e-03
 383,     4.8906,     14.700,    2.395744e-03
 384,     4.8761,     14.700,    1.930756e-03
 385,     4.8678,     14.700,    2.543051e-03
 386,     4.8563,     14.700,    2.815499e-03
 387,     4.8467,     14.700,    1.974517e-03
 388,     4.8293,     14.700,    5.582154e-02
 389,     4.8194,     14.700,    5.564924e-02
 390,     4.8098,     14.700,    5.403665e-02
 391,     4.8005,     14.700,    5.207579e-02
 392,     4.7911,     14.700,    5.540005e-02
 393,     4.7830,     14.700,    5.825220e-02
 394,     4.7692,     14.700,    4.077315e-02
 395,     4.7610,     14.700,    4.945086e-02
 396,     4.7535,     14.700,    5.053293e-02
 397,     4.7454,     14.700,    4.783025e-02
 398,     4.7370,     14.700,    4.925878e-02
 399,     4.7196,     14.700,    2.033257e-03
 400,     4.7011,     14.700,    2.317777e-03
 401,     4.6891,     14.700,    2.361720e-03
 402,     4.6720,     14.700,    1.898569e-03
 403,     4.6621,     14.700,    2.869974e-03
 404,     4.6502,     14.700,    3.312822e-03
 405,     4.6409,     14.700,    2.355629e-03
 406,     4.6341,     14.700,    2.320921e-03
 407,     4.5730,      9.373,    7.163823e-02
 408,     4.5717,     11.202,    3.802072e-02
 409,     4.5628,     11.252,    1.212914e-01
 410,     4.5160,     14.700,    2.641947e-03
 411,     4.5029,     14.700,    2.221340e-03
 412,     4.4896,     13.884,    2.258999e-03
 413,     4.4778,     14.700,    2.063236e-03
 414,     4.4685,     14.700,    2.331930e-03
 415,     4.4588,     14.700,    2.233397e-03
 416,     4.4381,     14.700,    1.744503e-03
 417,     4.4278,     14.700,    2.556927e-03
 418,     4.4170,     14.700,    1.687645e-03
 419,     4.4082,     14.700,    2.827560e-03
 420,     4.3978,     14.700,    2.415444e-03
 421,     4.3889,     10.396,    1.385664e-03
 422,     4.3795,     11.812,    1.317240e-03
 423,     4.3654,     14.700,    1.437930e-03
 424,     4.3523,     14.700,    2.730931e-03
 425,     4.3454,     14.310,    1.046696e-03
 426,     4.3272,     14.700,    2.228870e-03
 427,     4.3204,     12.881,    2.527124e-03
 428,     4.3130,     14.700,    1.995242e-03
 429,     4.3075,     14.700,    1.619610e-03
 430,     4.2977,     14.700,    2.518399e-03
 431,     4.2910,     14.700,    2.740631e-03
 432,     4.2809,     14.700,    1.858680e-03
 433,     4.2753,     11.204,    1.383575e-03
