index,   freq_ppm,   decay_hz, amplitude
   1,     9.0902,     14.263,    3.984174e-03
   2,     9.0777,     14.493,    4.053706e-03
   3,     9.0559,     14.452,    3.823271e-03
   4,     9.0392,     14.492,    4.196123e-03
   5,     9.0299,     14.248,    4.001938e-03
   6,     9.0115,     14.506,    4.942374e-03
   7,     8.9961,     14.553,    4.977938e-03
   8,     8.9776,     14.700,    2.137790e-03
   9,     8.9631,     14.700,    3.665855e-03
  10,     8.9439,     14.700,    2.755874e-03
  11,     8.9269,     14.700,    2.122521e-03
  12,     8.9111,     14.700,    3.436459e-03
  13,     8.8911,     14.700,    3.323796e-03
  14,     8.8777,     14.700,    3.692060e-03
  15,     8.8585,     14.700,    5.827668e-03
  16,     8.8460,     14.700,    5.876020e-03
  17,     8.8311,     14.700,    4.719339e-03
  18,     8.8169,     14.700,    4.530006e-03
  19,     8.7993,     14.700,    4.037464e-03
  20,     8.7887,     14.700,    4.129370e-03
  21,     8.7795,     14.700,    2.778712e-03
  22,     8.7706,     14.700,    2.398959e-03
  23,     8.7633,     14.700,    2.969688e-03
  24,     8.7474,     14.700,    3.977294e-03
  25,     8.7352,     14.700,    3.835413e-03
  26,     8.7253,      8.444,    2.259363e-03
  27,     8.7080,     14.700,    2.791584e-03
  28,     8.6927,     14.700,    2.932930e-03
  29,     8.6830,     14.700,    3.114636e-03
  30,     8.6735,     14.700,    2.448493e-03
  31,     8.6597,     14.700,    5.920400e-03
  32,     8.6466,     14.700,    3.147699e-03
  33,     8.6386,     14.700,    1.798089e-03
  34,     8.6247,     10.328,    1.635195e-03
  35,     8.6126,     14.700,    3.210214e-03
  36,     8.5975,     14.700,    3.447174e-03
  37,     8.5843,      8.759,    1.960399e-03
  38,     8.5748,     12.193,    2.506821e-03
  39,     8.5640,      8.366,    4.271959e-03
  40,     8.5565,     14.700,    2.265979e-03
  41,     8.5495,      6.143,    1.048608e-03
  42,     8.5435,     14.700,    4.287724e-03
  43,     8.5322,     14.700,    6.206452e-03
  44,     8.5144,     14.700,    4.164037e-03
  45,     8.5068,     14.700,    3.489905e-03
  46,     8.4932,     14.700,    3.255744e-03
  47,     8.4463,      7.477,    1.955283e-01
  48,     8.4448,      6.076,    1.018968e-01
  49,     8.4425,      8.726,    3.270466e-02
  50,     8.4385,     10.894,    1.825916e-02
  51,     8.4349,      5.715,    5.536160e-03
  52,     8.4318,      6.414,    5.489890e-03
  53,     8.4269,     14.700,    9.859283e-03
  54,     8.4176,     14.700,    5.754462e-03
  55,     8.4092,     14.700,    3.922484e-03
  56,     8.3995,     14.700,    4.562374e-03
  57,     8.3829,     12.352,    3.455379e-03
  58,     8.3780,      5.648,    1.067634e-03
  59,     8.3678,     14.700,    1.705406e-03
  60,     8.3555,     12.508,    2.432540e-03
  61,     8.3472,     14.700,    3.536601e-03
  62,     8.3394,     14.700,    3.431294e-03
  63,     8.3310,      2.964,    8.611237e-04
  64,     8.3210,     14.700,    6.205341e-03
  65,     8.3101,     14.700,    4.019784e-03
  66,     8.3002,      6.654,    1.440536e-03
  67,     8.2931,      2.275,    1.030280e-03
  68,     8.2856,     12.285,    2.653961e-03
  69,     8.2767,     14.700,    3.140739e-03
  70,     8.2630,     14.700,    3.135910e-03
  71,     8.2512,     14.700,    5.232167e-03
  72,     8.2360,     14.700,    3.698236e-03
  73,     8.2248,     14.700,    3.221250e-03
  74,     8.2142,     14.700,    3.518555e-03
  75,     8.2042,     14.700,    4.224414e-03
  76,     8.1859,     14.700,    4.210815e-03
  77,     8.1761,     10.952,    2.559211e-03
  78,     8.1670,     14.700,    3.685848e-03
  79,     8.1536,     14.700,    3.953438e-03
  80,     8.1434,     14.700,    4.646447e-03
  81,     8.1355,      7.688,    1.327699e-03
  82,     8.1303,      8.923,    1.640211e-03
  83,     8.1222,      9.149,    1.738247e-03
  84,     8.1168,      9.863,    1.742720e-03
  85,     8.1114,     12.548,    2.954091e-03
  86,     8.1043,     11.979,    2.842397e-03
  87,     8.0816,     14.700,    3.760276e-03
  88,     8.0721,     14.700,    3.488178e-03
  89,     8.0537,     14.700,    4.797905e-03
  90,     8.0411,     14.700,    4.170638e-03
  91,     8.0297,     14.700,    3.386609e-03
  92,     8.0166,     14.700,    2.626336e-03
  93,     8.0088,      9.348,    2.192129e-03
  94,     7.9942,     14.700,    2.857334e-03
  95,     7.9854,     14.700,    2.922903e-03
  96,     7.9772,     14.700,    3.703317e-03
  97,     7.9677,      8.210,    2.142334e-03
  98,     7.9606,     14.700,    4.365828e-03
  99,     7.9436,     14.700,    5.821633e-03
 100,     7.9311,     14.700,    4.235966e-03
 101,     7.9151,     14.700,    4.272352e-03
 102,     7.9008,     14.700,    2.859850e-03
 103,     7.8893,     14.700,    4.284638e-03
 104,     7.8820,      9.299,    1.799215e-03
 105,     7.8753,     14.034,    2.070269e-03
 106,     7.8659,     14.700,    9.951087e-03
 107,     7.8563,     14.700,    1.147981e-02
 108,     7.8456,     14.700,    4.097452e-03
 109,     7.8348,      6.254,    1.445613e-03
 110,     7.8255,      7.879,    1.788158e-03
 111,     7.8180,      6.383,    1.317487e-03
 112,     7.8107,     14.700,    3.075331e-03
 113,     7.8049,     14.700,    3.134015e-03
 114,     7.7880,     14.700,    3.886256e-03
 115,     7.7782,     14.700,    4.361663e-03
 116,     7.7679,     14.700,    2.711905e-03
 117,     7.7602,     13.231,    3.557655e-03
 118,     7.7529,     11.465,    3.725148e-03
 119,     7.7407,     14.700,    4.689231e-03
 120,     7.7226,     14.700,    3.807697e-03
 121,     7.7161,     14.700,    3.012435e-03
 122,     7.7067,     14.700,    3.923650e-03
 123,     7.6895,     14.700,    3.640570e-03
 124,     7.6790,     14.700,    4.087752e-03
 125,     7.6668,     14.700,    5.366409e-03
 126,     7.6577,     14.700,    2.298340e-03
 127,     7.6454,     14.700,    2.936548e-03
 128,     7.6297,     14.700,    3.303742e-03
 129,     7.6178,     11.246,    2.698880e-03
 130,     7.6105,     13.582,    3.125438e-03
 131,     7.6005,     12.765,    2.148680e-03
 132,     7.5908,     14.700,    2.173251e-03
 133,     7.5770,     11.402,    2.881831e-03
 134,     7.5715,     14.700,    2.450936e-03
 135,     7.5646,      7.827,    1.200690e-03
 136,     7.5570,     11.203,    2.819625e-03
 137,     7.5512,      7.997,    1.758794e-03
 138,     7.5432,     13.829,    6.189165e-03
 139,     7.5345,     14.700,    6.329380e-03
 140,     7.5204,     14.700,    3.892500e-03
 141,     7.5116,      6.111,    1.120603e-03
 142,     7.5011,     14.700,    2.481074e-03
 143,     7.4959,     10.094,    1.602647e-03
 144,     7.4824,     14.700,    7.477115e-03
 145,     7.4726,     12.469,    1.192685e-02
 146,     7.4632,     11.959,    6.052840e-03
 147,     7.4545,     14.700,    3.282715e-03
 148,     7.4478,     14.700,    2.157833e-03
 149,     7.4393,     14.700,    3.980380e-03
 150,     7.4239,     14.700,    2.570256e-03
 151,     7.4088,     14.700,    2.969242e-03
 152,     7.3906,     14.700,    2.836508e-03
 153,     7.3754,     14.700,    4.695543e-03
 154,     7.3594,     14.700,    3.216044e-03
 155,     7.3505,     11.844,    3.003219e-03
 156,     7.3414,     10.874,    2.389018e-03
 157,     7.3334,      2.824,    4.582726e-04
 158,     7.3287,     10.159,    1.945717e-03
 159,     7.3260,      3.569,    7.891380e-04
 160,     7.3166,     13.003,    2.543505e-03
 161,     7.3069,     13.886,    3.610902e-03
 162,     7.2884,     12.721,    3.612384e-03
 163,     7.2823,      9.988,    1.931252e-03
 164,     7.2773,     12.380,    2.329048e-03
 165,     7.2647,     14.700,    5.035084e-03
 166,     7.2513,     14.700,    3.279825e-03
 167,     7.2395,     14.700,    4.159495e-03
 168,     7.2231,     14.700,    3.985544e-03
 169,     7.2037,     14.700,    3.449194e-03
 170,     7.1907,     13.468,    2.399400e-03
 171,     7.1726,     13.910,    4.661996e-03
 172,     7.1541,      9.407,    1.676083e-03
 173,     7.1487,     14.700,    4.097348e-03
 174,     7.1377,     14.700,    3.637939e-03
 175,     7.1255,     14.700,    2.014422e-03
 176,     7.1163,     14.700,    3.742555e-03
 177,     7.1068,     14.700,    3.946990e-03
 178,     7.0962,     14.700,    2.768571e-03
 179,     7.0904,     14.700,    3.226492e-03
 180,     7.0796,     14.056,    7.388029e-03
 181,     7.0742,      3.829,    8.579095e-04
 182,     7.0644,     13.698,    3.945124e-03
 183,     7.0507,     14.700,    5.024214e-03
 184,     7.0278,     14.700,    4.097762e-03
 185,     7.0116,     13.158,    3.749706e-03
 186,     7.0007,     14.700,    3.719659e-03
 187,     6.9914,     14.293,    3.785650e-03
 188,     6.9754,     14.130,    2.941281e-03
 189,     6.9625,     13.747,    2.303411e-03
 190,     6.9429,     13.924,    3.003091e-03
 191,     6.9279,     13.497,    2.336662e-03
 192,     6.9190,     12.278,    2.000126e-03
 193,     6.9039,     14.196,    3.521646e-03
 194,     6.8971,      5.293,    1.225704e-03
 195,     6.8908,      5.106,    1.267521e-03
 196,     6.8812,      7.822,    2.062674e-03
 197,     6.8700,      4.498,    1.174660e-03
 198,     6.8606,     14.700,    2.892026e-03
 199,     6.8499,     14.700,    2.726933e-03
 200,     6.8353,     14.700,    4.547043e-03
 201,     6.8229,     14.700,    4.301964e-03
 202,     6.8071,     14.700,    2.507539e-03
 203,     6.7979,     14.700,    4.204471e-03
 204,     6.7812,      9.736,    2.340478e-03
 205,     6.7729,     14.700,    2.788569e-03
 206,     6.7607,     14.700,    2.872858e-03
 207,     6.7502,     14.700,    3.782285e-03
 208,     6.7416,     14.700,    3.678489e-03
 209,     6.7336,     14.700,    4.199922e-03
 210,     6.7226,     14.700,    4.867280e-03
 211,     6.7082,     14.700,    3.939898e-03
 212,     6.6855,     14.700,    3.703317e-03
 213,     6.6741,     14.700,    4.330746e-03
 214,     6.6596,     14.700,    2.547148e-03
 215,     6.6538,     14.700,    4.431218e-03
 216,     6.6480,      7.600,    8.954732e-04
 217,     6.6412,     14.677,    3.986880e-03
 218,     6.6309,     14.700,    3.209287e-03
 219,     6.6221,      7.167,    1.959149e-03
 220,     6.6119,     11.641,    2.942501e-03
 221,     6.5964,     14.700,    2.265986e-03
 222,     6.5812,      9.361,    2.722134e-03
 223,     6.5731,     14.700,    3.103725e-03
 224,     6.5602,     14.700,    3.361108e-03
 225,     6.5434,     14.700,    3.186149e-03
 226,     6.5340,      5.061,    1.221279e-03
 227,     6.5269,     13.114,    1.651377e-03
 228,     6.5128,     14.700,    2.981176e-03
 229,     6.4968,     14.700,    3.426236e-03
 230,     6.4857,     14.700,    3.322594e-03
 231,     6.4698,     14.700,    3.365318e-03
 232,     6.4609,     14.700,    3.796413e-03
 233,     6.4410,     14.700,    2.690871e-03
 234,     6.4316,     13.142,    3.628019e-03
 235,     6.4219,     14.700,    2.696435e-03
 236,     6.4140,     14.700,    3.503997e-03
 237,     6.4029,     14.700,    3.829274e-03
 238,     6.3953,     14.700,    4.189920e-03
 239,     6.3865,     14.700,    5.575649e-03
 240,     6.3836,      5.510,    2.086092e-03
 241,     6.3809,      2.158,    5.553775e-04
 242,     6.3748,      8.524,    2.016675e-03
 243,     6.3687,     10.014,    2.823354e-03
 244,     6.3605,     14.700,    6.655538e-03
 245,     6.3480,     14.700,    5.378279e-03
 246,     6.3394,     14.700,    5.531625e-03
 247,     6.3195,     14.700,    6.188958e-03
 248,     6.3044,     14.700,    6.954396e-03
 249,     6.2867,     14.700,    5.351363e-03
 250,     6.2790,      6.526,    7.165508e-04
 251,     6.2753,      5.478,    1.488097e-03
 252,     6.2677,      4.503,    9.226549e-04
 253,     6.2635,      9.820,    1.080454e-03
 254,     6.2585,      5.170,    1.548425e-03
 255,     6.2510,     14.700,    2.602735e-03
 256,     6.2289,     14.700,    3.005736e-03
 257,     6.2206,     14.700,    2.479322e-03
 258,     6.2112,     12.200,    2.576120e-03
 259,     6.2032,      8.692,    1.834557e-03
 260,     6.1962,     14.700,    2.343631e-03
 261,     6.1864,     14.700,    3.183058e-03
 262,     6.1783,      3.341,    7.866409e-04
 263,     6.1721,      8.299,    2.237780e-03
 264,     6.1641,      6.032,    1.279983e-03
 265,     6.1554,     14.700,    3.055568e-03
 266,     6.1391,     14.700,    3.643872e-03
 267,     6.1289,     14.700,    2.769584e-03
 268,     6.1182,     14.700,    2.729689e-03
 269,     6.0878,     14.700,    2.596827e-03
 270,     6.0694,     14.700,    2.939790e-03
 271,     6.0608,     14.617,    5.112080e-03
 272,     6.0525,     14.700,    3.732487e-03
 273,     6.0458,     14.700,    3.170750e-03
 274,     6.0377,     13.951,    3.142557e-03
 275,     6.0285,     11.041,    3.166974e-03
 276,     6.0233,      1.991,    5.029724e-04
 277,     6.0173,     13.580,    3.629934e-03
 278,     6.0119,     12.985,    2.862429e-03
 279,     6.0030,      6.648,    1.166499e-03
 280,     5.9981,     14.015,    4.912167e-03
 281,     5.9862,     14.700,    5.139478e-03
 282,     5.9722,     14.700,    3.747448e-03
 283,     5.9537,     14.700,    5.009658e-03
 284,     5.9386,     14.700,    4.967588e-03
 285,     5.9162,     14.700,    5.436068e-03
 286,     5.9060,     14.700,    3.979893e-03
 287,     5.8966,     14.700,    4.817732e-03
 288,     5.8892,     14.700,    3.210545e-03
 289,     5.8796,      6.124,    1.562812e-03
 290,     5.8734,     14.700,    2.127647e-03
 291,     5.8693,      6.238,    1.311850e-03
 292,     5.8643,      6.617,    1.542334e-03
 293,     5.8525,     14.700,    3.328556e-03
 294,     5.8405,     14.700,    2.956566e-03
 295,     5.8314,     14.700,    3.061394e-03
 296,     5.8190,     14.700,    4.448520e-03
 297,     5.8075,     14.700,    3.472241e-03
 298,     5.7944,     14.700,    4.732627e-03
 299,     5.7776,     14.700,    3.236598e-03
 300,     5.7666,     14.700,    4.203559e-03
 301,     5.7495,     14.700,    3.547464e-03
 302,     5.7387,     14.700,    2.321832e-03
 303,     5.7245,     14.700,    3.343487e-03
 304,     5.7123,     14.700,    4.620255e-03
 305,     5.7066,     14.700,    4.299037e-03
 306,     5.6908,     14.700,    3.772737e-03
 307,     5.6790,     14.700,    3.161820e-03
 308,     5.6687,     14.700,    4.310267e-03
 309,     5.6563,     14.700,    5.002099e-03
 310,     5.6385,     14.700,    4.039627e-03
 311,     5.6283,      5.189,    1.251446e-03
 312,     5.6248,     10.629,    2.353747e-03
 313,     5.6160,     14.541,    4.044590e-03
 314,     5.6099,      4.897,    8.701091e-04
 315,     5.6029,      5.777,    1.296582e-03
 316,     5.5955,     14.700,    4.826933e-03
 317,     5.5818,     14.700,    4.311066e-03
 318,     5.5651,     14.700,    3.207198e-03
 319,     5.5425,     14.700,    4.427882e-03
 320,     5.5195,     14.700,    3.691940e-03
 321,     5.5090,     14.700,    4.002023e-03
 322,     5.4972,     12.929,    3.504500e-03
 323,     5.4886,      6.945,    7.127011e-04
 324,     5.4815,     14.004,    3.963070e-03
 325,     5.4731,     14.700,    1.634446e-03
 326,     5.4632,     10.828,    4.138325e-03
 327,     5.4536,     14.700,    3.149532e-03
 328,     5.4445,     14.700,    3.106424e-03
 329,     5.4308,     14.700,    2.688867e-03
 330,     5.4221,     10.893,    2.925991e-03
 331,     5.4124,     14.700,    3.688334e-03
 332,     5.4013,     14.700,    2.690630e-03
 333,     5.3946,     14.700,    3.067013e-03
 334,     5.3840,     14.700,    2.548840e-03
 335,     5.3710,     14.700,    4.351623e-03
 336,     5.3570,     14.700,    3.069326e-03
 337,     5.3462,     13.188,    2.759341e-03
 338,     5.3379,     14.700,    2.761139e-03
 339,     5.3264,     14.700,    3.748136e-03
 340,     5.3158,      9.040,    2.181635e-03
 341,     5.3080,      8.522,    1.729167e-03
 342,     5.3024,      2.880,    6.676831e-04
 343,     5.2944,     12.532,    3.659829e-03
 344,     5.2839,     14.700,    1.516339e-03
 345,     5.2686,     14.700,    1.997112e-03
 346,     5.2588,     14.700,    3.471173e-03
 347,     5.2491,     14.700,    3.069219e-03
 348,     5.2353,     14.700,    3.141493e-03
 349,     5.2204,     14.700,    3.066661e-03
 350,     5.2115,     14.700,    2.513306e-03
 351,     5.2069,      1.761,    4.713579e-04
 352,     5.1994,     13.531,    2.609819e-03
 353,     5.1897,      5.455,    1.679978e-03
 354,     5.1846,     10.399,    1.509375e-03
 355,     5.1773,      4.776,    1.702829e-03
 356,     5.1689,     14.700,    4.370977e-03
 357,     5.1550,     14.700,    4.142263e-03
 358,     5.1341,     14.700,    2.444681e-03
 359,     5.1228,     14.700,    1.757265e-03
 360,     5.1142,     14.700,    2.608204e-03
 361,     5.0981,     14.700,    3.397522e-03
 362,     5.0809,     14.700,    3.839085e-03
 363,     5.0646,     14.700,    4.124240e-03
 364,     5.0437,     14.700,    3.438751e-03
 365,     5.0270,     14.700,    2.670576e-03
 366,     5.0173,     14.700,    3.151759e-03
 367,     5.0008,     14.700,    4.047710e-03
 368,     4.9926,     14.700,    4.310032e-03
 369,     4.9791,     14.700,    2.560897e-03
 370,     4.9693,     14.700,    3.604072e-03
 371,     4.9605,     14.700,    2.585486e-03
 372,     4.9522,     13.366,    2.535907e-03
 373,     4.9411,     14.700,    4.287453e-03
 374,     4.9253,     14.700,    4.181876e-03
 375,     4.9116,     14.700,    3.223270e-03
 376,     4.9003,     14.700,    2.976668e-03
 377,     4.8876,     14.700,    2.174199e-03
 378,     4.8754,     14.700,    3.641902e-03
 379,     4.8621,     14.700,    2.880409e-03
 380,     4.8526,     14.700,    4.726508e-02
 381,     4.8395,     14.700,    4.641514e-02
 382,     4.8268,     14.700,    4.254791e-02
 383,     4.8146,     14.700,    4.131390e-02
 384,     4.8035,     14.700,    3.865254e-02
 385,     4.7913,     14.700,    3.805068e-02
 386,     4.7742,     14.700,    1.255348e-01
 387,     4.7646,     14.700,    4.401329e-02
 388,     4.7572,     14.700,    3.495547e-02
 389,     4.7497,     14.700,    3.297759e-02
 390,     4.7424,     14.700,    3.355255e-02
 391,     4.7328,     12.026,    3.932164e-03
 392,     4.7257,      2.396,    9.619784e-04
 393,     4.7216,     12.392,    3.432619e-03
 394,     4.7127,     11.866,    1.187247e-03
 395,     4.7031,     14.700,    4.069204e-03
 396,     4.6914,     14.700,    2.895850e-03
 397,     4.6776,     14.700,    3.368579e-03
 398,     4.6529,     14.700,    4.328185e-03
 399,     4.6354,     14.700,    2.256238e-03
 400,     4.6198,     14.700,    3.476931e-03
 401,     4.6053,     14.700,    4.875485e-03
 402,     4.5950,     12.488,    2.706165e-03
 403,     4.5892,      4.322,    6.631996e-04
 404,     4.5844,     10.831,    2.229284e-03
 405,     4.5726,     14.700,    3.560218e-03
 406,     4.5646,      7.323,    7.576376e-04
 407,     4.5552,     14.700,    2.887123e-03
 408,     4.5460,      7.268,    1.351411e-03
 409,     4.5373,     14.700,    2.417905e-03
 410,     4.5234,     14.700,    3.125645e-03
 411,     4.5148,     13.934,    4.308562e-03
 412,     4.5058,     14.700,    3.161575e-03
 413,     4.4969,      8.637,    1.521979e-03
 414,     4.4900,     14.700,    4.173698e-03
 415,     4.4817,      8.683,    2.384242e-03
 416,     4.4776,      8.251,    1.905716e-03
 417,     4.4581,     14.700,    4.851222e-03
 418,     4.4362,     14.700,    4.334650e-03
 419,     4.4240,     14.700,    3.247644e-03
 420,     4.4129,     14.700,    5.038599e-03
 421,     4.3987,     14.700,    4.697056e-03
 422,     4.3853,      9.548,    2.494689e-03
 423,     4.3752,     14.700,    2.856351e-03
 424,     4.3652,      7.240,    2.527077e-03
 425,     4.3545,     14.700,    1.995448e-03
 426,     4.3457,      7.761,    1.751200e-03
 427,     4.3395,     10.251,    2.112536e-03
 428,     4.3298,     14.700,    3.313237e-03
 429,     4.3233,     14.700,    2.514033e-03
 430,     4.3164,     14.700,    2.303591e-03
 431,     4.3053,      4.800,    7.675239e-04
 432,     4.2975,     14.700,    2.879038e-03
 433,     4.2793,     14.700,    4.672705e-03
