index,   freq_ppm,   decay_hz, amplitude
   1,     9.0555,     14.700,    3.271676e-03
   2,     9.0489,     14.700,    2.572351e-03
   3,     9.0334,     14.700,    3.296996e-03
   4,     9.0228,     14.700,    3.624702e-03
   5,     9.0131,     14.700,    3.572917e-03
   6,     9.0016,      9.716,    2.120521e-03
   7,     8.9908,      9.737,    2.054508e-03
   8,     8.9844,     10.462,    2.614304e-03
   9,     8.9797,      6.881,    1.522828e-03
  10,     8.9686,      8.178,    2.022347e-03
  11,     8.9636,     14.700,    4.876299e-03
  12,     8.9512,     14.700,    3.746894e-03
  13,     8.9390,     14.700,    3.673809e-03
  14,     8.9218,     14.700,    3.871024e-03
  15,     8.9137,     14.700,    2.609787e-03
  16,     8.8918,     14.700,    2.531738e-03
  17,     8.8809,     14.700,    4.410100e-03
  18,     8.8724,      8.503,    2.047785e-03
  19,     8.8666,     14.700,    5.315500e-03
  20,     8.8546,     14.700,    3.150700e-03
  21,     8.8477,      8.746,    2.249281e-03
  22,     8.8387,     14.700,    4.867622e-03
  23,     8.8318,     14.700,    3.372845e-03
  24,     8.8259,     11.751,    3.634032e-03
  25,     8.8154,     14.700,    2.856795e-03
  26,     8.8005,     14.700,    4.141854e-03
  27,     8.7907,     10.375,    1.714480e-03
  28,     8.7842,     14.700,    3.384043e-03
  29,     8.7737,     14.700,    3.972158e-03
  30,     8.7633,     14.700,    4.210974e-03
  31,     8.7528,     14.700,    4.032629e-03
  32,     8.7397,     14.700,    6.262480e-03
  33,     8.7235,     14.700,    4.813167e-03
  34,     8.7118,     14.700,    3.922197e-03
  35,     8.6997,     14.700,    4.470534e-03
  36,     8.6876,     14.700,    3.826557e-03
  37,     8.6612,     14.700,    4.753343e-03
  38,     8.6457,     14.700,    5.781366e-03
  39,     8.6346,      3.816,    1.451573e-03
  40,     8.6259,      6.725,    1.259142e-03
  41,     8.6130,     14.700,    3.148715e-03
  42,     8.6054,     14.700,    2.850773e-03
  43,     8.5968,     14.700,    6.812237e-03
  44,     8.5848,     14.700,    7.521180e-03
  45,     8.5644,     14.700,    1.564058e-02
  46,     8.5511,     14.700,    5.091455e-03
  47,     8.5403,     14.700,    6.512839e-03
  48,     8.5256,     14.700,    8.247400e-03
  49,     8.5087,     14.700,    6.070163e-03
  50,     8.4469,      6.410,    1.979107e-01
  51,     8.4455,      6.226,    4.173954e-01
  52,     8.4439,     10.865,    2.753398e-01
  53,     8.4374,     14.700,    6.034112e-02
  54,     8.4271,     14.700,    3.405477e-02
  55,     8.4108,     14.700,    2.595495e-02
  56,     8.3872,     14.700,    2.130563e-02
  57,     8.3598,     14.700,    4.164647e-03
  58,     8.3493,     14.700,    4.891397e-03
  59,     8.3403,     14.700,    4.445801e-03
  60,     8.3308,     14.700,    2.634717e-03
  61,     8.3204,     13.540,    1.176855e-02
  62,     8.3039,     14.700,    3.340585e-03
  63,     8.2849,     14.700,    3.702949e-03
  64,     8.2681,     14.700,    4.318919e-03
  65,     8.2588,     14.700,    4.584109e-03
  66,     8.2513,     14.700,    2.743883e-03
  67,     8.2390,     14.700,    4.128194e-03
  68,     8.2212,     14.700,    3.951325e-03
  69,     8.2060,      4.855,    8.755749e-04
  70,     8.1990,     13.597,    3.807468e-03
  71,     8.1885,     14.700,    3.225774e-03
  72,     8.1709,      9.266,    1.768675e-03
  73,     8.1648,     11.858,    2.105528e-03
  74,     8.1562,     14.700,    2.905577e-03
  75,     8.1457,     14.700,    4.584533e-03
  76,     8.1356,     14.700,    3.429723e-03
  77,     8.1233,     14.700,    4.748369e-03
  78,     8.1005,     14.700,    3.927475e-03
  79,     8.0895,     14.700,    4.257591e-03
  80,     8.0622,     14.700,    4.522316e-03
  81,     8.0422,     14.700,    4.022524e-03
  82,     8.0320,     14.700,    4.596564e-03
  83,     8.0230,     14.700,    3.072644e-03
  84,     8.0055,     14.700,    3.984875e-03
  85,     7.9875,     14.700,    4.895451e-03
  86,     7.9754,     14.700,    5.732728e-03
  87,     7.9630,     14.700,    5.943102e-03
  88,     7.9520,     14.700,    3.261523e-03
  89,     7.9326,     14.700,    3.525459e-03
  90,     7.9172,     14.700,    3.844909e-03
  91,     7.9095,     14.700,    3.179820e-03
  92,     7.8990,      9.491,    3.604484e-03
  93,     7.8910,     14.274,    3.810439e-03
  94,     7.8856,      6.257,    1.713147e-03
  95,     7.8770,      4.820,    1.834722e-03
  96,     7.8657,     14.700,    1.609724e-02
  97,     7.8564,     14.700,    1.692769e-02
  98,     7.8486,     14.700,    3.469623e-03
  99,     7.8370,     14.700,    4.753352e-03
 100,     7.8231,     14.700,    6.389878e-03
 101,     7.8069,     14.700,    3.941115e-03
 102,     7.7908,     14.700,    2.129962e-03
 103,     7.7804,     14.700,    2.922824e-03
 104,     7.7697,     14.489,    2.855659e-03
 105,     7.7550,     14.016,    3.798397e-03
 106,     7.7457,     10.053,    2.701813e-03
 107,     7.7386,     13.831,    4.704507e-03
 108,     7.7309,      6.665,    1.754695e-03
 109,     7.7217,      8.968,    2.005876e-03
 110,     7.7180,      6.725,    6.034607e-04
 111,     7.7074,     14.700,    3.840371e-03
 112,     7.6955,     14.700,    3.528835e-03
 113,     7.6843,     14.700,    4.075984e-03
 114,     7.6714,     14.700,    4.758639e-03
 115,     7.6582,     14.700,    3.465341e-03
 116,     7.6397,     14.700,    4.914472e-03
 117,     7.6282,     14.700,    4.711529e-03
 118,     7.6133,     14.700,    2.860376e-03
 119,     7.6027,     14.700,    3.026836e-03
 120,     7.5873,     14.700,    3.033391e-03
 121,     7.5738,     11.212,    3.338275e-03
 122,     7.5643,     14.700,    3.633607e-03
 123,     7.5594,      2.703,    4.539098e-04
 124,     7.5534,     13.195,    4.508708e-03
 125,     7.5436,     14.539,    1.000938e-02
 126,     7.5346,     14.700,    7.502352e-03
 127,     7.5308,      3.944,    7.651859e-04
 128,     7.5222,     14.700,    4.120995e-03
 129,     7.5131,     14.700,    1.866289e-03
 130,     7.4821,     14.700,    1.286472e-02
 131,     7.4725,     13.774,    1.828154e-02
 132,     7.4630,     14.700,    9.775695e-03
 133,     7.4468,     14.700,    4.188434e-03
 134,     7.4337,     14.700,    2.479322e-03
 135,     7.4179,     14.700,    1.289008e-03
 136,     7.4104,      4.490,    1.229883e-03
 137,     7.4019,     10.590,    1.985775e-03
 138,     7.3973,      5.493,    9.477962e-04
 139,     7.3886,     12.611,    3.105043e-03
 140,     7.3794,      7.015,    1.773503e-03
 141,     7.3708,     14.700,    5.138739e-03
 142,     7.3625,     11.668,    3.576948e-03
 143,     7.3560,      6.298,    7.604797e-04
 144,     7.3423,     14.700,    4.238687e-03
 145,     7.3196,     14.700,    4.914857e-03
 146,     7.3002,     14.700,    5.984885e-03
 147,     7.2839,     14.700,    5.050299e-03
 148,     7.2544,     14.700,    4.382370e-03
 149,     7.2408,     14.700,    3.245530e-03
 150,     7.2222,     14.700,    5.131677e-03
 151,     7.2134,     14.700,    2.625102e-03
 152,     7.2068,     13.308,    3.029548e-03
 153,     7.1922,     14.165,    3.950994e-03
 154,     7.1835,     14.700,    2.347976e-03
 155,     7.1740,      8.640,    2.058606e-03
 156,     7.1605,     14.700,    4.115378e-03
 157,     7.1455,     14.700,    3.446656e-03
 158,     7.1281,     14.700,    4.212042e-03
 159,     7.1128,     14.700,    3.984693e-03
 160,     7.1001,     14.700,    4.002871e-03
 161,     7.0895,     13.885,    3.402002e-03
 162,     7.0787,     14.700,    8.717824e-03
 163,     7.0539,     14.700,    3.799018e-03
 164,     7.0247,     14.700,    4.649796e-03
 165,     7.0019,     14.700,    4.395665e-03
 166,     6.9668,     14.700,    3.789822e-03
 167,     6.9448,     14.700,    3.821914e-03
 168,     6.9304,     14.700,    3.522591e-03
 169,     6.9188,     14.700,    2.676079e-03
 170,     6.9124,      6.695,    1.801255e-03
 171,     6.9019,     14.700,    4.073760e-03
 172,     6.8955,      5.303,    1.329883e-03
 173,     6.8893,     10.816,    1.926633e-03
 174,     6.8762,     14.700,    3.515976e-03
 175,     6.8646,     14.700,    5.548692e-03
 176,     6.8521,     14.700,    3.685264e-03
 177,     6.8362,     14.700,    2.025864e-03
 178,     6.8271,     14.700,    3.654580e-03
 179,     6.8066,     14.700,    4.007440e-03
 180,     6.7979,     14.700,    2.689208e-03
 181,     6.7870,     14.700,    3.637698e-03
 182,     6.7785,     14.700,    4.122206e-03
 183,     6.7685,     14.700,    4.058145e-03
 184,     6.7543,     14.700,    4.197704e-03
 185,     6.7403,     13.588,    3.769690e-03
 186,     6.7259,     13.860,    3.486645e-03
 187,     6.7163,     14.700,    3.082575e-03
 188,     6.7021,     14.700,    3.654417e-03
 189,     6.6891,     14.700,    2.574154e-03
 190,     6.6727,     14.700,    4.590211e-03
 191,     6.6627,     14.700,    3.379648e-03
 192,     6.6463,     14.700,    3.341540e-03
 193,     6.6346,     14.700,    4.360087e-03
 194,     6.6227,      9.285,    1.841565e-03
 195,     6.6115,     14.700,    5.646479e-03
 196,     6.5928,     14.700,    3.578355e-03
 197,     6.5799,     14.700,    2.755924e-03
 198,     6.5675,     14.700,    5.113306e-03
 199,     6.5540,     14.700,    3.580762e-03
 200,     6.5390,     14.700,    2.613385e-03
 201,     6.5297,     14.700,    2.646260e-03
 202,     6.5185,     14.700,    1.151084e-03
 203,     6.5110,     14.700,    2.555035e-03
 204,     6.5001,     14.700,    1.282147e-03
 205,     6.4880,     14.700,    3.742533e-03
 206,     6.4686,     14.700,    4.736313e-03
 207,     6.4558,     14.700,    2.425088e-03
 208,     6.4482,     14.700,    4.398269e-03
 209,     6.4339,     14.700,    4.335699e-03
 210,     6.4165,     14.700,    4.183098e-03
 211,     6.4022,     14.700,    3.407771e-03
 212,     6.3879,     14.700,    4.464987e-03
 213,     6.3763,     14.700,    2.054045e-03
 214,     6.3631,     14.700,    6.390308e-03
 215,     6.3480,     14.700,    3.592394e-03
 216,     6.3356,     14.700,    4.906564e-03
 217,     6.3211,     14.700,    4.210578e-03
 218,     6.3005,     14.700,    3.597328e-03
 219,     6.2877,     14.700,    3.220367e-03
 220,     6.2759,     14.700,    3.521394e-03
 221,     6.2594,     14.700,    4.234015e-03
 222,     6.2434,      8.945,    1.689938e-03
 223,     6.2374,     14.700,    4.233490e-03
 224,     6.2324,     14.700,    2.372173e-03
 225,     6.2266,      0.000,    2.246525e-04
 226,     6.2195,      2.489,    8.287574e-04
 227,     6.2128,     14.700,    5.290066e-03
 228,     6.2041,     14.700,    2.231198e-03
 229,     6.1968,      2.613,    7.973069e-04
 230,     6.1915,      5.547,    1.636780e-03
 231,     6.1714,     14.700,    2.479322e-03
 232,     6.1621,      6.663,    2.206871e-03
 233,     6.1528,     14.307,    3.292811e-03
 234,     6.1471,      9.550,    2.209442e-03
 235,     6.1411,      6.568,    1.115996e-03
 236,     6.1327,     14.700,    3.212912e-03
 237,     6.1279,      6.824,    1.651803e-03
 238,     6.1213,      2.550,    8.716328e-04
 239,     6.1176,      9.742,    3.170115e-03
 240,     6.1112,      9.433,    1.422203e-03
 241,     6.0998,     14.700,    3.083028e-03
 242,     6.0918,     14.700,    2.959359e-03
 243,     6.0815,     14.700,    3.638493e-03
 244,     6.0706,     14.700,    3.863386e-03
 245,     6.0567,     14.700,    4.738062e-03
 246,     6.0458,     14.700,    4.937422e-03
 247,     6.0324,     14.700,    2.312475e-03
 248,     6.0192,     14.700,    2.935396e-03
 249,     6.0109,     14.700,    2.203814e-03
 250,     5.9952,      7.499,    2.361215e-03
 251,     5.9908,      6.288,    1.484319e-03
 252,     5.9727,     14.700,    4.161590e-03
 253,     5.9516,     14.700,    3.952234e-03
 254,     5.9385,     14.700,    4.084522e-03
 255,     5.9221,     14.700,    3.178783e-03
 256,     5.8896,     14.700,    3.660750e-03
 257,     5.8734,     14.700,    7.343009e-03
 258,     5.8564,     14.700,    5.301675e-03
 259,     5.8441,     14.700,    6.446092e-03
 260,     5.8210,     14.700,    6.706997e-03
 261,     5.7954,     14.700,    6.197047e-03
 262,     5.7676,     14.700,    5.843246e-03
 263,     5.7436,     14.700,    6.168867e-03
 264,     5.7051,     14.700,    3.954914e-03
 265,     5.6923,     14.700,    4.127613e-03
 266,     5.6763,     14.700,    5.220311e-03
 267,     5.6662,     14.700,    4.404889e-03
 268,     5.6587,     14.700,    3.889948e-03
 269,     5.6464,     14.700,    3.570555e-03
 270,     5.6301,     14.700,    3.709373e-03
 271,     5.6222,     14.700,    4.068731e-03
 272,     5.6118,     14.700,    4.135481e-03
 273,     5.5969,     14.700,    4.284871e-03
 274,     5.5820,     14.700,    4.139199e-03
 275,     5.5750,      6.356,    1.310554e-03
 276,     5.5687,     12.431,    4.701202e-03
 277,     5.5545,     14.700,    2.903600e-03
 278,     5.5441,     14.700,    1.966995e-03
 279,     5.5365,     13.336,    2.318134e-03
 280,     5.5241,     14.700,    5.254186e-03
 281,     5.5051,     14.700,    4.228155e-03
 282,     5.4862,     14.700,    5.754106e-03
 283,     5.4689,     14.700,    2.553551e-03
 284,     5.4543,     14.700,    4.328562e-03
 285,     5.4385,     14.700,    4.021627e-03
 286,     5.4286,     14.700,    2.576687e-03
 287,     5.4209,      6.397,    1.749883e-03
 288,     5.4039,     14.700,    3.217783e-03
 289,     5.3909,     14.700,    2.480746e-03
 290,     5.3807,     14.700,    2.441144e-03
 291,     5.3668,      8.359,    1.957286e-03
 292,     5.3600,      9.090,    2.717864e-03
 293,     5.3549,      3.069,    5.096415e-04
 294,     5.3503,     14.700,    2.320971e-03
 295,     5.3444,     14.700,    3.396831e-03
 296,     5.3333,      6.141,    1.832042e-03
 297,     5.3239,     14.700,    3.243738e-03
 298,     5.3166,     14.700,    3.325139e-03
 299,     5.3072,     14.700,    2.946025e-03
 300,     5.2892,     14.700,    4.075862e-03
 301,     5.2703,     14.700,    4.936918e-03
 302,     5.2615,      4.964,    1.241829e-03
 303,     5.2483,     14.700,    4.151577e-03
 304,     5.2370,      7.161,    1.684784e-03
 305,     5.2318,      7.849,    1.854340e-03
 306,     5.2256,      2.004,    9.697371e-04
 307,     5.2184,     14.700,    3.045239e-03
 308,     5.2111,      6.454,    1.133915e-03
 309,     5.2006,     14.700,    2.986192e-03
 310,     5.1861,     14.700,    4.300322e-03
 311,     5.1728,     14.700,    2.421654e-03
 312,     5.1642,     14.700,    2.121447e-03
 313,     5.1560,      8.222,    1.871086e-03
 314,     5.1481,     14.700,    4.700293e-03
 315,     5.1320,     14.700,    3.965663e-03
 316,     5.1196,     14.700,    2.008681e-03
 317,     5.1050,     14.700,    5.251804e-03
 318,     5.0913,     14.700,    4.253589e-03
 319,     5.0819,     14.700,    3.797081e-03
 320,     5.0660,     14.700,    3.151011e-03
 321,     5.0518,     14.700,    4.826112e-03
 322,     5.0383,     14.700,    3.004763e-03
 323,     5.0274,     14.700,    3.062343e-03
 324,     5.0166,     14.700,    3.651392e-03
 325,     5.0089,      5.380,    8.451301e-04
 326,     5.0039,      8.441,    2.729058e-03
 327,     4.9959,     14.700,    3.169038e-03
 328,     4.9906,      2.466,    7.834237e-04
 329,     4.9812,      8.269,    1.342164e-03
 330,     4.9709,     14.700,    3.881302e-03
 331,     4.9465,     14.700,    2.529712e-03
 332,     4.9395,      7.900,    1.510123e-03
 333,     4.9330,      7.861,    1.636372e-03
 334,     4.9284,      7.649,    1.790967e-03
 335,     4.9213,      9.096,    2.359128e-03
 336,     4.9165,      9.155,    1.857958e-03
 337,     4.9112,     10.600,    2.941190e-03
 338,     4.9042,      3.932,    7.567449e-04
 339,     4.8967,      9.683,    2.501530e-03
 340,     4.8906,     10.041,    1.763255e-03
 341,     4.8840,      6.103,    1.524517e-03
 342,     4.8744,     14.700,    4.689821e-03
 343,     4.8667,     14.700,    3.719577e-03
 344,     4.8536,     14.700,    4.056009e-03
 345,     4.8428,     14.700,    4.861235e-03
 346,     4.8289,     14.700,    5.722222e-03
 347,     4.8199,     14.700,    5.301732e-03
 348,     4.8093,     14.700,    2.131249e-01
 349,     4.8022,     14.700,    2.057770e-01
 350,     4.7952,     14.700,    2.060677e-01
 351,     4.7881,     14.700,    2.116318e-01
 352,     4.7810,     14.700,    2.238134e-01
 353,     4.7647,     14.700,    3.143698e-01
 354,     4.7526,     14.700,    3.041515e-01
 355,     4.7408,     14.700,    2.961556e-01
 356,     4.7290,     14.700,    2.999197e-01
 357,     4.7170,     14.700,    3.064249e-01
 358,     4.7050,     14.700,    3.260993e-01
 359,     4.7000,     14.700,    2.467335e-03
 360,     4.6901,     14.700,    5.432826e-03
 361,     4.6801,     14.700,    3.963082e-03
 362,     4.6703,     13.820,    3.380676e-03
 363,     4.6609,     14.700,    4.546380e-03
 364,     4.6522,      4.289,    8.847719e-04
 365,     4.6450,      2.915,    5.439994e-04
 366,     4.6351,     14.700,    2.519372e-03
 367,     4.6265,     14.700,    5.092193e-03
 368,     4.6170,      3.981,    9.942414e-04
 369,     4.6108,      9.136,    1.573004e-03
 370,     4.6048,      8.645,    1.345236e-03
 371,     4.5980,     14.700,    4.772276e-03
 372,     4.5874,      8.312,    1.623556e-03
 373,     4.5802,     14.700,    3.613748e-03
 374,     4.5648,     14.700,    2.705381e-03
 375,     4.5514,     14.700,    3.689332e-03
 376,     4.5336,     14.700,    5.447706e-03
 377,     4.5213,     14.700,    3.386448e-03
 378,     4.5093,      7.726,    2.043127e-03
 379,     4.4996,     14.700,    4.502053e-03
 380,     4.4867,     14.700,    5.433077e-03
 381,     4.4569,     14.700,    5.407176e-03
 382,     4.4353,     14.700,    5.446119e-03
 383,     4.4150,     14.700,    3.589930e-03
 384,     4.4015,     14.700,    3.837645e-03
 385,     4.3925,     14.700,    5.459981e-03
 386,     4.3800,     14.700,    4.223389e-03
 387,     4.3733,     11.345,    3.203690e-03
 388,     4.3671,     10.138,    2.226514e-03
 389,     4.3616,      5.424,    1.374647e-03
 390,     4.3540,      7.485,    2.267297e-03
 391,     4.3459,     14.700,    4.504833e-03
 392,     4.3399,      8.904,    1.944699e-03
 393,     4.3324,      9.176,    3.827637e-03
 394,     4.3203,     14.700,    4.969929e-03
 395,     4.3118,     12.709,    3.967529e-03
 396,     4.3065,      0.900,    4.643745e-04
 397,     4.3042,      9.810,    1.620040e-03
 398,     4.2998,      3.120,    9.957296e-04
 399,     4.2927,     11.231,    2.229541e-03
 400,     4.2877,     14.700,    4.092146e-03
 401,     4.2737,     14.700,    5.028734e-03
 402,     4.2600,     14.700,    3.505401e-03
 403,     4.2476,     14.700,    3.845482e-03
 404,     4.2259,     14.700,    3.957236e-03
 405,     4.2150,     14.700,    3.381975e-03
 406,     4.2003,     14.700,    5.172614e-03
 407,     4.1859,     14.700,    4.003674e-03
 408,     4.1737,     14.700,    4.422871e-03
 409,     4.1650,     14.700,    5.672163e-03
 410,     4.1523,     14.700,    4.522493e-03
 411,     4.1458,     14.700,    5.844554e-03
 412,     4.1377,      8.127,    1.918315e-03
 413,     4.1281,     14.700,    3.759338e-03
 414,     4.1170,     14.700,    3.239682e-03
 415,     4.1102,      0.360,    4.567230e-04
 416,     4.1031,     14.700,    5.154288e-03
 417,     4.0901,     14.700,    5.275207e-03
 418,     4.0703,     14.700,    4.680158e-03
 419,     4.0501,     14.700,    5.555600e-03
 420,     4.0408,     14.700,    4.564145e-03
 421,     4.0281,     14.700,    5.578376e-03
 422,     4.0077,     14.700,    4.724633e-03
 423,     4.0003,     14.700,    3.119247e-03
 424,     3.9896,     14.700,    4.719818e-03
 425,     3.9720,     14.700,    4.022405e-03
 426,     3.9570,     14.700,    3.854583e-03
 427,     3.9481,     14.700,    2.719067e-03
 428,     3.9323,     14.700,    5.915480e-03
 429,     3.9176,     14.700,    3.810861e-03
 430,     3.9033,     14.700,    2.985958e-03
 431,     3.8944,     14.700,    4.612710e-03
 432,     3.8846,     14.700,    5.342304e-03
 433,     3.8742,     14.700,    5.795381e-03
