index,   freq_ppm,   decay_hz, amplitude
   1,     9.0909,     14.051,    2.676476e-03
   2,     9.0817,     14.700,    2.196908e-03
   3,     9.0675,     14.700,    3.255439e-03
   4,     9.0552,     14.700,    2.335738e-03
   5,     9.0423,     14.700,    2.513185e-03
   6,     9.0226,     14.700,    2.753095e-03
   7,     9.0105,     13.946,    1.710285e-03
   8,     9.0039,     11.421,    2.398904e-03
   9,     8.9974,     13.585,    1.695560e-03
  10,     8.9870,      6.011,    3.070262e-04
  11,     8.9821,      6.830,    1.468558e-03
  12,     8.9712,     14.700,    2.526611e-03
  13,     8.9583,     14.700,    2.802529e-03
  14,     8.9459,     14.700,    4.888324e-03
  15,     8.9348,     14.700,    2.711076e-03
  16,     8.9203,     14.700,    3.401118e-03
  17,     8.9070,     14.700,    3.579134e-03
  18,     8.8998,     14.700,    3.607050e-03
  19,     8.8915,      7.985,    8.157382e-04
  20,     8.8855,      0.000,    1.245702e-04
  21,     8.8831,     14.700,    3.719080e-03
  22,     8.8706,     14.284,    2.705088e-03
  23,     8.8567,     11.309,    1.284968e-03
  24,     8.8455,      6.554,    1.311494e-03
  25,     8.8395,      9.282,    1.309154e-03
  26,     8.8336,     14.700,    3.566877e-03
  27,     8.8262,      6.517,    7.691606e-04
  28,     8.8183,     13.370,    3.849692e-03
  29,     8.8072,     14.700,    2.297520e-03
  30,     8.7976,     14.700,    1.464969e-03
  31,     8.7839,     14.700,    1.688032e-03
  32,     8.7738,      3.551,    7.949967e-04
  33,     8.7676,     14.700,    1.362077e-03
  34,     8.7552,     14.700,    2.291312e-03
  35,     8.7473,     14.700,    4.016685e-03
  36,     8.7395,     14.700,    2.123039e-03
  37,     8.7322,     14.700,    2.880072e-03
  38,     8.7139,     14.700,    2.827472e-03
  39,     8.6995,     14.700,    3.803280e-03
  40,     8.6719,     14.700,    2.175729e-03
  41,     8.6579,     14.700,    2.829148e-03
  42,     8.6487,     14.700,    2.141945e-03
  43,     8.6399,     14.700,    1.929304e-03
  44,     8.6231,     14.700,    3.683002e-03
  45,     8.6068,     14.700,    1.983976e-03
  46,     8.5998,     14.700,    2.050781e-03
  47,     8.5866,     14.700,    3.077839e-03
  48,     8.5788,      8.368,    1.042480e-03
  49,     8.5644,     14.700,    3.365656e-03
  50,     8.5565,     14.700,    1.649500e-03
  51,     8.5516,     10.708,    1.747933e-03
  52,     8.5414,     13.161,    3.070448e-03
  53,     8.5322,      3.042,    2.387302e-04
  54,     8.5283,     14.700,    2.587175e-03
  55,     8.5184,     14.700,    3.214401e-03
  56,     8.5097,     14.700,    2.564381e-03
  57,     8.4989,      9.462,    7.508316e-04
  58,     8.4930,     14.700,    2.758182e-03
  59,     8.4860,     14.700,    2.047499e-03
  60,     8.4469,      6.719,    3.810113e-02
  61,     8.4455,      5.834,    5.701221e-02
  62,     8.4440,     10.203,    4.920730e-02
  63,     8.4388,     14.700,    9.709080e-03
  64,     8.4336,     14.700,    5.738059e-03
  65,     8.4233,     14.700,    3.584506e-03
  66,     8.4083,      9.783,    1.853877e-03
  67,     8.3994,      6.680,    9.990651e-04
  68,     8.3880,     14.700,    1.985351e-03
  69,     8.3778,     14.700,    3.449113e-03
  70,     8.3716,     14.700,    1.997826e-03
  71,     8.3623,     14.700,    3.791303e-03
  72,     8.3548,     14.700,    1.890562e-03
  73,     8.3498,      7.095,    1.226618e-03
  74,     8.3402,     10.002,    2.330215e-03
  75,     8.3354,      3.282,    6.065676e-04
  76,     8.3212,     14.700,    4.661191e-03
  77,     8.3089,     14.700,    2.839194e-03
  78,     8.2952,     14.700,    3.263731e-03
  79,     8.2789,     14.700,    2.823633e-03
  80,     8.2670,     14.700,    2.471471e-03
  81,     8.2556,      4.468,    1.009693e-03
  82,     8.2486,     14.700,    2.890616e-03
  83,     8.2410,      4.967,    6.176836e-04
  84,     8.2327,      9.322,    1.355965e-03
  85,     8.2261,     14.700,    2.274797e-03
  86,     8.2079,     14.700,    4.310805e-03
  87,     8.1973,     14.700,    2.942024e-03
  88,     8.1850,     14.700,    3.188276e-03
  89,     8.1725,     14.700,    2.817568e-03
  90,     8.1593,     14.700,    4.468727e-03
  91,     8.1460,     14.700,    1.799524e-03
  92,     8.1338,     14.700,    3.707051e-03
  93,     8.1301,      0.000,    1.252734e-04
  94,     8.1237,      9.841,    1.580969e-03
  95,     8.1200,      3.351,    5.346200e-04
  96,     8.1088,     13.231,    2.749358e-03
  97,     8.1022,     14.700,    3.013794e-03
  98,     8.0945,     14.700,    2.185716e-03
  99,     8.0833,     14.700,    3.240886e-03
 100,     8.0714,     14.700,    2.620762e-03
 101,     8.0616,     14.700,    3.624338e-03
 102,     8.0376,     14.700,    1.502256e-03
 103,     8.0237,     14.700,    2.387408e-03
 104,     8.0150,     14.700,    2.550235e-03
 105,     8.0037,     14.700,    2.864545e-03
 106,     7.9884,     14.700,    2.421699e-03
 107,     7.9653,     14.700,    4.452370e-03
 108,     7.9512,     14.271,    2.216928e-03
 109,     7.9442,      3.648,    3.066638e-04
 110,     7.9369,     14.700,    2.684252e-03
 111,     7.9246,      6.371,    1.157135e-03
 112,     7.9154,     12.548,    1.849904e-03
 113,     7.9100,      6.486,    8.797867e-04
 114,     7.9023,      4.988,    4.075780e-04
 115,     7.9014,      9.270,    9.549296e-04
 116,     7.8956,      5.899,    1.012768e-03
 117,     7.8671,     14.700,    4.085892e-03
 118,     7.8550,     14.700,    2.521279e-03
 119,     7.8434,     14.700,    4.509669e-03
 120,     7.8263,     14.700,    4.048621e-03
 121,     7.8084,     14.700,    2.702656e-03
 122,     7.7991,     14.700,    3.396370e-03
 123,     7.7782,     14.700,    3.259839e-03
 124,     7.7568,     14.700,    2.923227e-03
 125,     7.7394,     14.700,    3.078442e-03
 126,     7.7245,     14.700,    4.084833e-03
 127,     7.7053,     14.700,    3.318872e-03
 128,     7.6779,     14.700,    3.856742e-03
 129,     7.6604,     14.700,    4.490837e-03
 130,     7.6457,     14.700,    4.274485e-03
 131,     7.6405,     14.700,    1.893526e-03
 132,     7.6281,     14.700,    3.160278e-03
 133,     7.6203,     11.553,    2.052668e-03
 134,     7.6155,      6.368,    5.045680e-04
 135,     7.6047,     14.700,    1.357454e-03
 136,     7.5937,     14.700,    2.595321e-03
 137,     7.5831,     14.700,    2.196083e-03
 138,     7.5795,      0.000,    8.705890e-05
 139,     7.5722,      9.912,    1.566179e-03
 140,     7.5631,     12.228,    2.283069e-03
 141,     7.5594,      8.634,    1.007391e-03
 142,     7.5506,     13.461,    2.098611e-03
 143,     7.5376,      7.596,    1.065962e-03
 144,     7.5324,     12.406,    2.095273e-03
 145,     7.5207,     14.700,    3.057047e-03
 146,     7.5008,     14.700,    3.297441e-03
 147,     7.4890,     14.700,    1.997039e-03
 148,     7.4819,     14.700,    1.127931e-03
 149,     7.4739,     14.700,    2.493226e-03
 150,     7.4602,     14.700,    3.304445e-03
 151,     7.4473,     14.700,    3.459391e-03
 152,     7.4316,     14.700,    2.874737e-03
 153,     7.4099,     14.700,    3.493607e-03
 154,     7.3998,     14.700,    3.053084e-03
 155,     7.3876,     14.700,    3.503114e-03
 156,     7.3779,     10.736,    2.215799e-03
 157,     7.3705,      8.301,    1.130900e-03
 158,     7.3671,      1.570,    2.401270e-04
 159,     7.3624,      9.006,    1.230413e-03
 160,     7.3552,      6.278,    1.270723e-03
 161,     7.3464,     14.700,    2.833709e-03
 162,     7.3367,     14.700,    4.012492e-03
 163,     7.3198,     14.700,    1.741640e-03
 164,     7.3064,     14.700,    1.683793e-03
 165,     7.2949,     13.764,    1.570449e-03
 166,     7.2849,     13.776,    1.699196e-03
 167,     7.2775,     14.700,    2.822198e-03
 168,     7.2632,     14.700,    1.797808e-03
 169,     7.2508,     14.700,    2.025428e-03
 170,     7.2356,     14.700,    2.128916e-03
 171,     7.2217,     14.700,    1.454744e-03
 172,     7.1935,     14.700,    2.030760e-03
 173,     7.1849,      1.835,    1.841953e-04
 174,     7.1810,     13.761,    2.193153e-03
 175,     7.1597,     14.367,    2.782928e-03
 176,     7.1478,      5.506,    9.557005e-04
 177,     7.1351,     14.700,    2.355710e-03
 178,     7.1245,     14.700,    2.662431e-03
 179,     7.1111,     14.700,    4.045061e-03
 180,     7.0994,     14.700,    2.097118e-03
 181,     7.0883,     14.700,    2.102857e-03
 182,     7.0807,     14.700,    5.687805e-03
 183,     7.0630,     14.700,    1.975470e-03
 184,     7.0544,     14.700,    2.381117e-03
 185,     7.0466,     14.700,    2.297031e-03
 186,     7.0315,     14.700,    2.585929e-03
 187,     7.0232,     14.700,    3.661271e-03
 188,     7.0101,     10.593,    1.829717e-03
 189,     6.9979,     14.700,    3.027823e-03
 190,     6.9905,      4.336,    6.210218e-04
 191,     6.9823,     14.700,    2.994114e-03
 192,     6.9754,     14.700,    1.901687e-03
 193,     6.9621,     14.700,    1.925105e-03
 194,     6.9533,      7.491,    1.498850e-03
 195,     6.9426,     10.536,    2.125781e-03
 196,     6.9338,     12.193,    2.996119e-03
 197,     6.9288,      6.023,    6.850403e-04
 198,     6.9139,     14.700,    2.014379e-03
 199,     6.9033,     14.700,    2.413165e-03
 200,     6.8938,     14.700,    1.915131e-03
 201,     6.8748,     14.700,    2.354903e-03
 202,     6.8594,     14.700,    3.244498e-03
 203,     6.8449,     14.700,    3.063043e-03
 204,     6.8339,     14.700,    3.226964e-03
 205,     6.8114,     14.700,    2.103036e-03
 206,     6.7973,     14.700,    2.470291e-03
 207,     6.7896,     14.700,    2.993598e-03
 208,     6.7703,     14.700,    2.373652e-03
 209,     6.7534,     14.700,    4.354856e-03
 210,     6.7304,     14.700,    3.200881e-03
 211,     6.7185,     14.700,    3.832467e-03
 212,     6.7091,     14.700,    3.057224e-03
 213,     6.6961,     14.700,    3.466469e-03
 214,     6.6836,     14.700,    2.601672e-03
 215,     6.6703,     14.700,    3.625866e-03
 216,     6.6498,     14.700,    4.214583e-03
 217,     6.6368,      7.909,    8.540223e-04
 218,     6.6233,     14.700,    4.370793e-03
 219,     6.6034,     14.700,    2.532632e-03
 220,     6.5929,     14.700,    1.874773e-03
 221,     6.5852,     14.700,    2.998507e-03
 222,     6.5789,      6.390,    9.762729e-04
 223,     6.5718,      1.936,    2.256566e-04
 224,     6.5626,     14.700,    2.342497e-03
 225,     6.5562,     12.152,    2.091789e-03
 226,     6.5476,      8.965,    9.369987e-04
 227,     6.5360,     14.700,    1.928273e-03
 228,     6.5233,     14.700,    1.328263e-03
 229,     6.5125,     14.700,    2.216409e-03
 230,     6.4955,     14.700,    3.148705e-03
 231,     6.4877,     14.700,    2.491320e-03
 232,     6.4768,     14.700,    2.473661e-03
 233,     6.4468,     14.700,    3.267293e-03
 234,     6.4311,     14.700,    2.305492e-03
 235,     6.4143,     14.700,    3.255337e-03
 236,     6.4041,     14.700,    2.856684e-03
 237,     6.3876,     14.700,    3.968626e-03
 238,     6.3637,     14.700,    7.503320e-03
 239,     6.3387,     14.700,    4.284319e-03
 240,     6.3092,     14.700,    3.518780e-03
 241,     6.2939,     14.700,    3.870820e-03
 242,     6.2824,     14.700,    3.743204e-03
 243,     6.2739,     14.700,    4.402816e-03
 244,     6.2635,     14.700,    3.050386e-03
 245,     6.2537,     14.700,    4.266285e-03
 246,     6.2383,     14.700,    2.387335e-03
 247,     6.2299,     14.700,    3.013913e-03
 248,     6.2170,     14.700,    1.705932e-03
 249,     6.2014,     14.700,    2.914911e-03
 250,     6.1875,     14.700,    3.110504e-03
 251,     6.1788,     14.700,    3.228191e-03
 252,     6.1714,     14.700,    2.982097e-03
 253,     6.1612,     14.700,    3.249704e-03
 254,     6.1522,     14.700,    2.084107e-03
 255,     6.1341,     14.700,    3.445487e-03
 256,     6.1208,     14.700,    2.096796e-03
 257,     6.1051,     14.700,    3.487962e-03
 258,     6.0825,     14.700,    3.454393e-03
 259,     6.0720,     14.700,    2.356887e-03
 260,     6.0568,     14.700,    3.675465e-03
 261,     6.0438,     14.700,    2.494336e-03
 262,     6.0308,     14.700,    3.950031e-03
 263,     6.0057,     14.700,    3.312512e-03
 264,     5.9738,     14.700,    2.172861e-03
 265,     5.9475,     14.700,    2.023992e-03
 266,     5.9324,     14.700,    3.548390e-03
 267,     5.9189,     14.700,    2.654933e-03
 268,     5.9027,     14.700,    2.781851e-03
 269,     5.8910,     14.700,    3.800060e-03
 270,     5.8753,     14.700,    3.588782e-03
 271,     5.8569,     14.700,    2.484002e-03
 272,     5.8405,     14.700,    2.123580e-03
 273,     5.8309,     14.700,    4.210584e-03
 274,     5.8231,      8.343,    1.938323e-03
 275,     5.8126,     14.700,    3.068807e-03
 276,     5.8067,      2.281,    2.236934e-04
 277,     5.8026,     14.143,    2.534159e-03
 278,     5.7918,     14.700,    3.573436e-03
 279,     5.7822,     14.215,    1.727873e-03
 280,     5.7740,     14.700,    1.993965e-03
 281,     5.7610,     14.700,    2.243472e-03
 282,     5.7533,      4.838,    7.580762e-04
 283,     5.7470,     14.700,    2.146618e-03
 284,     5.7381,      9.047,    1.949062e-03
 285,     5.7314,      9.262,    2.373433e-03
 286,     5.7259,     10.768,    1.248591e-03
 287,     5.7177,      9.560,    1.624428e-03
 288,     5.7052,     14.700,    2.578581e-03
 289,     5.6886,     14.700,    2.811924e-03
 290,     5.6806,     14.700,    2.086525e-03
 291,     5.6678,     14.700,    3.606152e-03
 292,     5.6569,     14.700,    2.578781e-03
 293,     5.6423,     14.700,    2.849935e-03
 294,     5.6306,     14.700,    2.106874e-03
 295,     5.6149,     14.700,    2.885215e-03
 296,     5.6038,     14.700,    3.487471e-03
 297,     5.5904,     14.700,    2.492602e-03
 298,     5.5709,     14.700,    3.545059e-03
 299,     5.5527,     14.700,    4.325629e-03
 300,     5.5332,     14.700,    3.996905e-03
 301,     5.5075,     14.700,    3.499164e-03
 302,     5.4890,     14.700,    4.512205e-03
 303,     5.4582,     14.700,    3.962764e-03
 304,     5.4433,     14.700,    3.725334e-03
 305,     5.4202,     14.700,    2.655428e-03
 306,     5.4127,      9.304,    1.026084e-03
 307,     5.4054,     14.700,    2.358024e-03
 308,     5.3971,     14.700,    2.326695e-03
 309,     5.3833,     14.700,    2.014416e-03
 310,     5.3709,     14.700,    2.921969e-03
 311,     5.3476,     14.700,    5.848276e-03
 312,     5.3300,     14.700,    4.344383e-03
 313,     5.3133,     14.700,    4.590528e-03
 314,     5.2909,     14.700,    5.303103e-03
 315,     5.2722,     14.700,    3.979508e-03
 316,     5.2401,     14.700,    4.407439e-03
 317,     5.2183,     14.700,    2.242735e-03
 318,     5.2081,      6.198,    8.192890e-04
 319,     5.1979,     14.700,    1.991997e-03
 320,     5.1920,      6.890,    6.328811e-04
 321,     5.1797,     11.895,    2.901855e-03
 322,     5.1706,     14.700,    4.562169e-03
 323,     5.1520,     14.700,    3.631675e-03
 324,     5.1394,     14.700,    3.706995e-03
 325,     5.1211,     14.700,    3.776169e-03
 326,     5.1100,     14.700,    3.857707e-03
 327,     5.0891,     14.700,    4.539298e-03
 328,     5.0709,     14.700,    3.225946e-03
 329,     5.0603,     14.700,    4.411125e-03
 330,     5.0520,     14.008,    3.020362e-03
 331,     5.0471,     14.700,    1.560113e-03
 332,     5.0408,      7.908,    1.210292e-03
 333,     5.0305,     12.082,    2.217453e-03
 334,     5.0223,      8.947,    7.014143e-04
 335,     5.0111,     12.852,    1.991660e-03
 336,     5.0034,      7.707,    1.181983e-03
 337,     4.9978,      8.946,    1.241089e-03
 338,     4.9924,      8.614,    1.019541e-03
 339,     4.9873,     10.830,    1.462728e-03
 340,     4.9820,     14.700,    3.312667e-03
 341,     4.9733,      9.091,    1.637762e-03
 342,     4.9634,     14.700,    2.504939e-03
 343,     4.9541,     14.700,    2.635943e-03
 344,     4.9448,     14.700,    2.459035e-03
 345,     4.9350,     14.700,    7.302405e-03
 346,     4.9212,     14.700,    3.690004e-03
 347,     4.8983,     14.700,    3.798598e-03
 348,     4.8828,     14.700,    4.320301e-03
 349,     4.8711,     14.700,    3.217269e-03
 350,     4.8564,     14.700,    3.620384e-03
 351,     4.8460,     14.700,    4.767796e-03
 352,     4.8180,     14.700,    5.079614e-03
 353,     4.8033,     14.700,    1.445009e-02
 354,     4.7940,     14.700,    1.891702e-02
 355,     4.7863,     14.700,    1.403033e-02
 356,     4.7769,      3.528,    8.586088e-03
 357,     4.7671,     14.700,    9.601867e-03
 358,     4.7617,     14.700,    6.530534e-03
 359,     4.7567,     14.700,    1.113795e-02
 360,     4.7504,     14.700,    1.116070e-02
 361,     4.7442,     14.700,    9.685046e-03
 362,     4.7375,     14.700,    8.009986e-03
 363,     4.7305,     14.700,    3.409529e-03
 364,     4.7229,      9.093,    1.003692e-03
 365,     4.7086,     14.700,    3.814856e-03
 366,     4.6991,     13.123,    4.045097e-03
 367,     4.6946,      2.783,    4.670864e-04
 368,     4.6888,     14.700,    5.732888e-03
 369,     4.6843,     14.700,    1.424087e-03
 370,     4.6774,     14.700,    2.866491e-03
 371,     4.6601,     14.700,    3.062635e-03
 372,     4.6523,     14.338,    1.641590e-03
 373,     4.6421,     14.700,    2.139841e-03
 374,     4.6337,     14.700,    2.946828e-03
 375,     4.6217,     14.700,    6.502683e-03
 376,     4.6103,     14.700,    8.395215e-03
 377,     4.6060,     14.700,    4.466209e-03
 378,     4.5961,     14.700,    9.039230e-03
 379,     4.5926,     14.700,    1.468352e-02
 380,     4.5807,     14.700,    2.012876e-02
 381,     4.5687,     14.700,    4.382299e-03
 382,     4.5424,     14.700,    1.105783e-02
 383,     4.5017,     13.493,    2.006954e+00
 384,     4.4581,     12.335,    1.863934e-03
 385,     4.4541,      9.525,    2.179339e-03
 386,     4.4490,     11.071,    5.995948e-03
 387,     4.4440,      9.571,    4.092304e-03
 388,     4.4224,     14.700,    1.954147e-03
 389,     4.4089,     14.700,    7.595222e-03
 390,     4.4050,     14.700,    2.407547e-02
 391,     4.3939,     14.700,    9.573570e-03
 392,     4.3891,     14.068,    9.879807e-03
 393,     4.3845,     14.700,    8.966984e-03
 394,     4.3791,     12.979,    4.210039e-03
 395,     4.3568,     14.700,    6.404628e-03
 396,     4.3465,     14.700,    1.095072e-02
 397,     4.3411,     10.855,    9.604685e-03
 398,     4.3324,     11.289,    1.494790e-02
 399,     4.3270,     10.666,    1.534424e-02
 400,     4.3016,     13.375,    4.981634e-03
 401,     4.2971,     10.735,    3.082176e-03
 402,     4.2901,     11.165,    1.099713e-02
 403,     4.2804,     13.074,    1.471261e-02
 404,     4.2763,     13.318,    5.495948e-03
 405,     4.2662,     10.783,    8.683577e-03
 406,     4.2458,     14.700,    1.207823e-02
 407,     4.2400,     14.700,    9.489337e-03
 408,     4.2306,     14.700,    5.515513e-03
 409,     4.2275,      7.707,    1.674521e-03
 410,     4.2139,     13.024,    6.917899e-03
 411,     4.2027,     13.850,    9.994142e-03
 412,     4.1990,     11.401,    8.077923e-03
 413,     4.1940,     11.486,    4.144281e-03
 414,     4.1905,     10.466,    2.778323e-03
 415,     4.1884,      9.709,    4.006608e-03
 416,     4.1833,     11.522,    1.548106e-03
 417,     4.1645,     14.700,    4.183646e-03
 418,     4.1453,     14.700,    8.448718e-03
 419,     4.1367,     14.700,    1.057520e-02
 420,     4.1319,     14.700,    9.017935e-03
 421,     4.1255,     13.953,    6.393810e-03
 422,     4.1103,      6.947,    4.023205e-03
 423,     4.1032,     11.597,    1.226366e-02
 424,     4.0952,     14.364,    2.124094e-02
 425,     4.0629,      7.787,    4.673208e-02
 426,     4.0593,     10.409,    1.042290e-01
 427,     4.0563,     11.020,    1.742179e-01
 428,     4.0536,     11.808,    1.226181e-01
 429,     4.0502,     14.485,    2.664298e-01
 430,     4.0454,     14.636,    3.099814e-01
 431,     4.0172,     10.972,    2.861015e-01
 432,     4.0149,      8.012,    1.293744e-01
 433,     4.0089,     14.700,    7.328997e-01
