index,   freq_ppm,   decay_hz, amplitude
   1,     9.0919,     14.700,    2.012030e-03
   2,     9.0761,     14.700,    2.583688e-03
   3,     9.0606,     14.700,    1.683436e-03
   4,     9.0471,     14.700,    2.743274e-03
   5,     9.0285,     14.700,    2.110429e-03
   6,     9.0169,     14.700,    2.829442e-03
   7,     9.0108,     14.700,    2.440074e-03
   8,     8.9947,     14.700,    2.160020e-03
   9,     8.9795,     14.700,    2.891379e-03
  10,     8.9723,     14.700,    1.645090e-03
  11,     8.9599,     14.700,    3.110879e-03
  12,     8.9473,      8.965,    7.072038e-04
  13,     8.9366,     14.700,    1.985214e-03
  14,     8.9230,     14.700,    2.677562e-03
  15,     8.9000,     14.700,    2.108180e-03
  16,     8.8852,     14.700,    2.732918e-03
  17,     8.8707,     14.700,    3.069867e-03
  18,     8.8394,     14.700,    2.354154e-03
  19,     8.8198,     12.429,    2.552737e-03
  20,     8.8125,     11.403,    1.800013e-03
  21,     8.8012,     14.700,    2.221107e-03
  22,     8.7874,     14.700,    1.692147e-03
  23,     8.7806,     14.700,    1.284437e-03
  24,     8.7744,     14.700,    1.826287e-03
  25,     8.7674,     14.700,    1.572302e-03
  26,     8.7549,      7.463,    9.237630e-04
  27,     8.7476,     14.700,    1.738220e-03
  28,     8.7277,     14.700,    1.896019e-03
  29,     8.7144,     14.700,    7.605256e-04
  30,     8.7075,      7.927,    8.541073e-04
  31,     8.6957,     14.700,    2.333111e-03
  32,     8.6891,     10.552,    4.411064e-04
  33,     8.6786,     14.700,    1.891016e-03
  34,     8.6684,     14.700,    2.576713e-03
  35,     8.6561,     14.700,    2.459740e-03
  36,     8.6447,     14.700,    2.663927e-03
  37,     8.6200,     14.700,    2.904332e-03
  38,     8.6109,     14.700,    2.382519e-03
  39,     8.5936,     14.700,    2.672115e-03
  40,     8.5814,     14.700,    2.130102e-03
  41,     8.5643,     10.073,    6.255737e-03
  42,     8.5609,     10.353,    1.460942e-03
  43,     8.5529,     14.700,    1.314079e-03
  44,     8.5417,     14.700,    1.719579e-03
  45,     8.5289,     14.700,    2.591163e-03
  46,     8.5226,     13.181,    2.178066e-03
  47,     8.5176,     12.599,    2.996716e-03
  48,     8.5105,     11.304,    2.744331e-03
  49,     8.5064,      9.474,    1.009024e-03
  50,     8.5001,     13.875,    2.121541e-03
  51,     8.4469,      6.707,    1.541653e-01
  52,     8.4455,      6.004,    2.604203e-01
  53,     8.4439,      9.632,    1.784953e-01
  54,     8.4387,     14.700,    4.570034e-02
  55,     8.4311,     14.700,    1.707545e-02
  56,     8.4214,     14.700,    1.423388e-02
  57,     8.4082,     14.700,    1.170991e-02
  58,     8.3991,     13.178,    2.187829e-03
  59,     8.3907,     14.652,    2.240026e-03
  60,     8.3821,     14.700,    3.324381e-03
  61,     8.3735,     14.700,    3.279078e-03
  62,     8.3633,     14.700,    2.518433e-03
  63,     8.3501,     14.700,    1.898862e-03
  64,     8.3407,     14.700,    1.862043e-03
  65,     8.3293,     14.700,    2.988884e-03
  66,     8.3210,     14.700,    8.190494e-03
  67,     8.3041,     12.228,    1.966244e-03
  68,     8.2981,      8.950,    1.698639e-03
  69,     8.2889,      3.512,    5.654646e-04
  70,     8.2852,      6.681,    6.138732e-04
  71,     8.2798,      2.386,    2.909659e-04
  72,     8.2761,      7.916,    1.248938e-03
  73,     8.2667,     14.700,    2.125411e-03
  74,     8.2597,      8.564,    1.263857e-03
  75,     8.2499,     11.934,    2.057052e-03
  76,     8.2375,     14.700,    2.652855e-03
  77,     8.2198,     14.700,    3.944501e-03
  78,     8.1698,     14.700,    2.644953e-03
  79,     8.1515,     14.700,    3.128243e-03
  80,     8.1108,     14.700,    2.644943e-03
  81,     8.0819,     14.700,    1.955307e-03
  82,     8.0558,     14.700,    2.261565e-03
  83,     8.0350,     14.700,    2.134538e-03
  84,     8.0218,     14.700,    2.364732e-03
  85,     7.9944,     14.700,    2.136625e-03
  86,     7.9843,     14.700,    2.493726e-03
  87,     7.9619,     14.700,    2.121686e-03
  88,     7.9407,     14.700,    1.826284e-03
  89,     7.9270,     14.700,    2.319599e-03
  90,     7.9117,     14.700,    2.317763e-03
  91,     7.8940,     14.700,    2.992259e-03
  92,     7.8802,     14.700,    1.742449e-03
  93,     7.8648,     14.700,    4.089173e-03
  94,     7.8562,     14.700,    4.605606e-03
  95,     7.8504,     13.616,    1.227267e-03
  96,     7.8411,      6.571,    8.270537e-04
  97,     7.8285,      4.826,    7.786142e-04
  98,     7.8225,      8.929,    1.189455e-03
  99,     7.8142,      2.482,    2.894865e-04
 100,     7.8062,     14.249,    2.090051e-03
 101,     7.7994,      5.129,    6.809470e-04
 102,     7.7907,      8.383,    6.638005e-04
 103,     7.7799,     14.700,    1.459407e-03
 104,     7.7740,      5.104,    6.710860e-04
 105,     7.7607,     14.700,    1.747555e-03
 106,     7.7508,     14.700,    2.150852e-03
 107,     7.7447,     14.700,    2.439216e-03
 108,     7.7356,     13.089,    2.141716e-03
 109,     7.7235,     14.700,    1.087870e-03
 110,     7.7133,     14.700,    3.456907e-03
 111,     7.7047,     14.700,    2.389689e-03
 112,     7.6998,      4.729,    3.184286e-04
 113,     7.6886,     14.700,    1.839522e-03
 114,     7.6785,     14.700,    3.198441e-03
 115,     7.6694,     14.700,    1.771981e-03
 116,     7.6614,     14.700,    2.342786e-03
 117,     7.6358,     14.700,    2.283464e-03
 118,     7.6260,     14.700,    3.388781e-03
 119,     7.6062,     14.700,    3.071698e-03
 120,     7.5849,     14.700,    2.155492e-03
 121,     7.5771,     14.700,    2.775367e-03
 122,     7.5661,     14.700,    2.648300e-03
 123,     7.5513,     14.700,    2.733065e-03
 124,     7.5420,     14.700,    3.149678e-03
 125,     7.5336,     14.700,    2.197788e-03
 126,     7.5231,      7.948,    8.232477e-04
 127,     7.5154,     14.700,    1.814539e-03
 128,     7.5009,     14.700,    2.249425e-03
 129,     7.4839,     14.700,    1.773381e-03
 130,     7.4718,     14.700,    3.723810e-03
 131,     7.4640,     14.700,    2.923734e-03
 132,     7.4587,      3.679,    6.193028e-04
 133,     7.4485,     14.700,    2.396772e-03
 134,     7.4337,     14.700,    2.485785e-03
 135,     7.4167,     10.491,    9.775143e-04
 136,     7.4061,      7.890,    1.392060e-03
 137,     7.3944,     14.700,    2.535997e-03
 138,     7.3818,     14.700,    2.010937e-03
 139,     7.3715,      8.540,    1.936691e-03
 140,     7.3645,      8.171,    1.827211e-03
 141,     7.3613,      0.000,    9.383650e-05
 142,     7.3527,      5.639,    7.182247e-04
 143,     7.3486,      9.469,    9.843524e-04
 144,     7.3374,     14.700,    2.381969e-03
 145,     7.3293,     14.700,    1.584916e-03
 146,     7.3225,     13.904,    1.392752e-03
 147,     7.3026,     14.700,    2.420170e-03
 148,     7.2922,      8.311,    5.955540e-04
 149,     7.2848,      2.773,    4.174515e-04
 150,     7.2832,      0.980,    2.550980e-04
 151,     7.2764,      7.211,    7.601369e-04
 152,     7.2722,      6.727,    1.007839e-03
 153,     7.2696,      6.443,    5.003990e-04
 154,     7.2616,     14.700,    3.827117e-03
 155,     7.2498,     14.700,    3.109295e-03
 156,     7.2375,     14.700,    3.008011e-03
 157,     7.2250,     14.700,    3.388949e-03
 158,     7.2056,     14.700,    3.172544e-03
 159,     7.1734,     14.700,    4.918583e-03
 160,     7.1215,     14.700,    3.814248e-03
 161,     7.0903,     14.700,    2.438149e-03
 162,     7.0807,     13.808,    5.831033e-03
 163,     7.0718,     11.425,    2.177477e-03
 164,     7.0621,     14.700,    3.655167e-03
 165,     7.0461,     14.700,    3.571793e-03
 166,     7.0281,     14.700,    1.768449e-03
 167,     7.0133,     14.700,    4.171256e-03
 168,     6.9993,     14.700,    2.783858e-03
 169,     6.9840,     14.700,    3.224878e-03
 170,     6.9764,     14.700,    2.376662e-03
 171,     6.9681,     14.700,    3.355037e-03
 172,     6.9551,     14.700,    3.893765e-03
 173,     6.9444,     14.700,    2.609381e-03
 174,     6.9390,     10.306,    1.107287e-03
 175,     6.9229,     14.700,    1.886286e-03
 176,     6.9127,      4.926,    4.476329e-04
 177,     6.8979,     14.700,    2.237582e-03
 178,     6.8782,     14.700,    2.074535e-03
 179,     6.8658,     14.700,    2.308733e-03
 180,     6.8504,     14.700,    2.494786e-03
 181,     6.8396,     14.700,    1.739560e-03
 182,     6.8279,     14.700,    2.024659e-03
 183,     6.8165,     14.700,    2.192987e-03
 184,     6.8028,     14.700,    2.470139e-03
 185,     6.7930,      2.527,    3.029016e-04
 186,     6.7862,      4.926,    6.864547e-04
 187,     6.7787,     11.732,    1.620404e-03
 188,     6.7748,      8.277,    1.068838e-03
 189,     6.7666,      9.807,    9.901226e-04
 190,     6.7616,     11.474,    1.428727e-03
 191,     6.7478,     10.493,    6.950710e-04
 192,     6.7362,      8.557,    1.199592e-03
 193,     6.7292,     10.233,    1.726090e-03
 194,     6.7210,     14.700,    3.358651e-03
 195,     6.7098,     14.700,    2.611235e-03
 196,     6.6908,     14.700,    2.184802e-03
 197,     6.6653,     14.700,    1.611182e-03
 198,     6.6487,     14.700,    2.795730e-03
 199,     6.6225,     14.700,    2.518654e-03
 200,     6.6137,     14.700,    2.010359e-03
 201,     6.6030,     14.700,    1.707816e-03
 202,     6.5941,     14.700,    2.660315e-03
 203,     6.5784,     14.700,    2.018539e-03
 204,     6.5653,     14.700,    3.465408e-03
 205,     6.5387,     14.700,    2.474074e-03
 206,     6.5263,     14.700,    2.636764e-03
 207,     6.5106,     14.700,    2.052649e-03
 208,     6.4922,     14.700,    1.814202e-03
 209,     6.4788,     14.700,    2.661168e-03
 210,     6.4611,     14.700,    2.715157e-03
 211,     6.4500,      6.523,    7.913781e-04
 212,     6.4444,     10.385,    1.575315e-03
 213,     6.4359,     14.700,    2.913273e-03
 214,     6.4286,     14.493,    1.910802e-03
 215,     6.4212,     14.700,    8.410875e-04
 216,     6.4079,     14.700,    2.207087e-03
 217,     6.4025,      7.521,    1.236583e-03
 218,     6.3896,      6.092,    9.540393e-04
 219,     6.3845,     14.700,    1.863951e-03
 220,     6.3787,      6.280,    3.429430e-04
 221,     6.3739,     14.700,    1.876861e-03
 222,     6.3634,     14.700,    4.087568e-03
 223,     6.3549,     14.700,    1.637297e-03
 224,     6.3441,     14.700,    1.647650e-03
 225,     6.3302,     14.700,    2.646995e-03
 226,     6.3117,     14.700,    3.111780e-03
 227,     6.3032,     14.700,    4.017947e-03
 228,     6.2741,     14.700,    2.404312e-03
 229,     6.2619,     14.700,    2.863907e-03
 230,     6.2468,     14.700,    2.375138e-03
 231,     6.2290,     14.700,    1.690701e-03
 232,     6.2100,     14.700,    2.250273e-03
 233,     6.1997,     14.700,    2.138007e-03
 234,     6.1879,     14.700,    3.272461e-03
 235,     6.1806,     14.700,    3.039295e-03
 236,     6.1713,     14.700,    3.456061e-03
 237,     6.1572,     14.700,    2.863107e-03
 238,     6.1448,      9.705,    1.164581e-03
 239,     6.1341,     14.700,    2.356844e-03
 240,     6.1249,     14.700,    3.158498e-03
 241,     6.1139,     14.700,    1.006641e-03
 242,     6.1074,     14.700,    3.040006e-03
 243,     6.1002,     14.700,    2.397673e-03
 244,     6.0920,     14.700,    1.789449e-03
 245,     6.0849,     14.700,    3.304148e-03
 246,     6.0763,     14.700,    2.559613e-03
 247,     6.0671,     14.700,    2.511203e-03
 248,     6.0592,     14.700,    2.862121e-03
 249,     6.0470,      4.693,    7.697126e-04
 250,     6.0357,     14.700,    2.132816e-03
 251,     6.0244,     14.700,    3.576411e-03
 252,     6.0145,     14.700,    3.264864e-03
 253,     6.0043,     14.700,    3.425203e-03
 254,     5.9909,     14.249,    3.611219e-03
 255,     5.9780,     13.112,    2.233872e-03
 256,     5.9721,     10.041,    1.419088e-03
 257,     5.9638,     12.839,    1.868761e-03
 258,     5.9483,     14.527,    3.683067e-03
 259,     5.9269,     14.700,    3.293434e-03
 260,     5.9092,     14.700,    1.229696e-03
 261,     5.8986,     14.700,    2.178620e-03
 262,     5.8832,     14.700,    1.568298e-03
 263,     5.8714,     14.700,    1.412722e-03
 264,     5.8642,     13.045,    1.991126e-03
 265,     5.8403,     14.700,    2.510031e-03
 266,     5.8248,     14.700,    2.169385e-03
 267,     5.8082,     14.700,    1.498251e-03
 268,     5.7927,     14.700,    1.452333e-03
 269,     5.7841,     14.700,    1.836385e-03
 270,     5.7631,     14.700,    1.995474e-03
 271,     5.7504,     12.400,    1.488635e-03
 272,     5.7433,     14.700,    2.401958e-03
 273,     5.7288,     14.700,    1.624775e-03
 274,     5.7179,     14.700,    2.920920e-03
 275,     5.6951,     14.700,    2.517246e-03
 276,     5.6831,     14.700,    3.279489e-03
 277,     5.6771,      8.735,    1.119753e-03
 278,     5.6698,     14.700,    1.448680e-03
 279,     5.6573,     14.700,    2.692728e-03
 280,     5.6463,     14.700,    2.102814e-03
 281,     5.6346,     14.700,    2.506220e-03
 282,     5.6230,     14.700,    1.470528e-03
 283,     5.6163,     14.700,    2.474226e-03
 284,     5.5997,     14.700,    2.669799e-03
 285,     5.5824,     14.700,    2.599738e-03
 286,     5.5678,     14.700,    1.997312e-03
 287,     5.5499,     14.700,    1.472821e-03
 288,     5.5438,     14.700,    2.363590e-03
 289,     5.5385,     11.091,    1.135285e-03
 290,     5.5273,     12.587,    2.013703e-03
 291,     5.5159,     13.251,    1.650892e-03
 292,     5.5052,     14.700,    2.167873e-03
 293,     5.4990,      7.612,    1.031289e-03
 294,     5.4963,     13.332,    2.186695e-03
 295,     5.4887,     14.700,    2.294088e-03
 296,     5.4817,      8.335,    9.628979e-04
 297,     5.4702,      9.403,    1.392000e-03
 298,     5.4634,     12.111,    1.842674e-03
 299,     5.4562,      7.212,    9.316240e-04
 300,     5.4492,      8.547,    1.200919e-03
 301,     5.4350,     14.700,    1.151641e-03
 302,     5.3998,     10.209,    1.735524e-02
 303,     5.3956,     14.519,    7.429626e-02
 304,     5.3910,     13.055,    3.675506e-02
 305,     5.3744,     14.700,    1.044877e-03
 306,     5.3678,      8.485,    7.951006e-04
 307,     5.3570,     14.700,    3.042880e-03
 308,     5.3456,     14.700,    3.245087e-03
 309,     5.3344,     14.700,    2.183574e-03
 310,     5.3036,     14.700,    2.522760e-03
 311,     5.2903,     14.700,    2.737005e-03
 312,     5.2610,     14.700,    2.920666e-03
 313,     5.2363,      3.312,    3.594111e-04
 314,     5.2280,     13.560,    1.049144e-02
 315,     5.2233,     13.421,    1.025439e-02
 316,     5.2133,     11.677,    6.864064e-04
 317,     5.2052,     14.700,    9.137894e-04
 318,     5.1880,     14.700,    3.374977e-03
 319,     5.1842,     10.873,    1.368719e-03
 320,     5.1821,      9.476,    1.057429e-03
 321,     5.1773,     13.931,    5.011376e-04
 322,     5.1693,      7.704,    8.513031e-04
 323,     5.1561,      9.298,    1.497099e-03
 324,     5.1431,     14.700,    3.043533e-03
 325,     5.1347,     14.700,    3.834036e-03
 326,     5.1230,     14.700,    3.048038e-03
 327,     5.1155,     14.700,    3.861394e-03
 328,     5.1011,     14.700,    3.498678e-03
 329,     5.0723,     14.700,    2.637144e-03
 330,     5.0650,     14.700,    1.545545e-03
 331,     5.0581,     14.700,    2.406339e-03
 332,     5.0463,     14.700,    2.774819e-03
 333,     5.0241,     14.700,    2.214831e-03
 334,     5.0132,     14.700,    1.665826e-03
 335,     4.9958,     14.700,    3.447390e-03
 336,     4.9819,     11.887,    1.524989e-03
 337,     4.9762,     14.700,    1.376905e-03
 338,     4.9640,     14.700,    2.214631e-03
 339,     4.9489,     14.700,    1.311514e-03
 340,     4.9393,     14.700,    1.552389e-03
 341,     4.9348,      6.743,    1.230398e-03
 342,     4.9273,      9.802,    1.593442e-03
 343,     4.9170,     11.475,    1.891257e-03
 344,     4.9112,      9.068,    7.768232e-04
 345,     4.9048,      0.000,    9.858896e-05
 346,     4.9012,      7.737,    1.238280e-03
 347,     4.8914,     12.425,    1.523898e-03
 348,     4.8887,     14.700,    2.355825e-03
 349,     4.8700,     14.700,    1.880980e-03
 350,     4.8493,     14.700,    2.502652e-03
 351,     4.8381,     14.700,    3.012012e-03
 352,     4.8198,     14.700,    3.779956e-03
 353,     4.8103,     14.700,    3.670943e-03
 354,     4.8044,     14.700,    6.544511e-02
 355,     4.7984,     14.700,    6.724039e-02
 356,     4.7927,     14.700,    6.713491e-02
 357,     4.7869,     14.700,    6.173191e-02
 358,     4.7817,     12.521,    6.185623e-02
 359,     4.7680,     14.700,    8.741483e-02
 360,     4.7585,     14.700,    1.176550e-01
 361,     4.7487,     14.700,    1.368400e-01
 362,     4.7402,     14.700,    1.391244e-01
 363,     4.7269,     14.700,    1.136603e-01
 364,     4.7144,     14.700,    1.171689e-01
 365,     4.7055,     14.700,    2.169143e-03
 366,     4.6928,     14.700,    2.106116e-03
 367,     4.6839,     14.700,    2.671695e-03
 368,     4.6674,     12.146,    2.181080e-03
 369,     4.6625,     11.661,    3.448056e-03
 370,     4.6551,     12.885,    1.491369e-02
 371,     4.6452,     14.700,    1.695022e-02
 372,     4.6322,     14.700,    1.315896e-03
 373,     4.6239,     14.700,    2.494863e-03
 374,     4.6155,     10.782,    1.416148e-03
 375,     4.6043,      0.000,    1.266411e-04
 376,     4.5965,     14.700,    2.854642e-03
 377,     4.5898,     14.700,    1.703054e-03
 378,     4.5807,     14.700,    2.037264e-03
 379,     4.5723,      2.406,    2.783570e-04
 380,     4.5696,      4.622,    6.466807e-04
 381,     4.5638,      8.379,    1.906137e-03
 382,     4.5575,      7.505,    2.123265e-03
 383,     4.5488,     14.700,    5.479368e-03
 384,     4.5366,     14.388,    1.498313e-03
 385,     4.5311,     12.093,    1.561524e-03
 386,     4.5143,     11.587,    2.974061e-03
 387,     4.5087,     10.354,    3.236423e-03
 388,     4.5032,      9.809,    3.296651e-03
 389,     4.4988,     12.272,    3.392729e-03
 390,     4.4919,     14.700,    2.113668e-03
 391,     4.4851,     12.762,    2.817184e-03
 392,     4.4707,     14.700,    1.776857e-03
 393,     4.4663,     14.700,    2.251622e-03
 394,     4.4546,     14.700,    1.523845e-03
 395,     4.4461,     10.203,    1.187971e-03
 396,     4.4392,     14.700,    7.693837e-04
 397,     4.4269,     14.700,    2.792342e-03
 398,     4.4148,     14.700,    2.268463e-03
 399,     4.4029,     10.156,    1.536814e-03
 400,     4.3960,     14.700,    1.518729e-03
 401,     4.3877,     14.700,    1.323617e-03
 402,     4.3810,     14.700,    1.270210e-03
 403,     4.3668,     14.700,    1.597463e-03
 404,     4.3576,     14.700,    2.335694e-03
 405,     4.3473,     14.700,    2.855939e-03
 406,     4.3387,     14.700,    2.052596e-03
 407,     4.3270,      5.748,    1.048977e-03
 408,     4.3197,     13.187,    2.012268e-03
 409,     4.3128,     14.700,    2.068206e-03
 410,     4.3050,     14.700,    3.825351e-03
 411,     4.2952,     14.700,    1.786441e-03
 412,     4.2820,     14.700,    4.553705e-03
 413,     4.2699,     14.700,    1.805513e-03
 414,     4.2545,     14.700,    4.675441e-03
 415,     4.2342,     14.700,    4.711823e-03
 416,     4.2160,     14.700,    3.749848e-03
 417,     4.2064,     14.700,    3.719276e-03
 418,     4.1933,     14.700,    5.128291e-03
 419,     4.1809,     14.700,    4.495697e-03
 420,     4.1700,     14.700,    4.363348e-03
 421,     4.1602,     11.026,    6.019939e-04
 422,     4.1524,      4.640,    3.491271e-04
 423,     4.1436,     13.988,    2.522078e-03
 424,     4.1382,      4.339,    6.280438e-04
 425,     4.1318,     14.452,    2.676034e-03
 426,     4.1220,      9.796,    1.230347e-03
 427,     4.1040,     14.700,    3.850546e-03
 428,     4.0945,     14.700,    3.539193e-03
 429,     4.0862,     14.700,    2.638158e-03
 430,     4.0759,     14.700,    3.589868e-03
 431,     4.0659,     14.700,    4.431472e-03
 432,     4.0591,     14.700,    2.532647e-03
 433,     4.0456,     14.700,    1.570003e-03
