index,   freq_ppm,   decay_hz, amplitude
   1,     9.0774,     14.700,    3.027746e-03
   2,     9.0682,     14.700,    3.157976e-03
   3,     9.0519,     14.700,    3.677780e-03
   4,     9.0364,     14.700,    5.151866e-03
   5,     9.0163,     14.700,    2.345481e-03
   6,     9.0066,     14.700,    4.245247e-03
   7,     8.9902,     14.700,    4.210825e-03
   8,     8.9820,     11.375,    3.277068e-03
   9,     8.9745,      4.554,    1.399323e-03
  10,     8.9670,     14.700,    2.744688e-03
  11,     8.9579,     14.700,    3.088136e-03
  12,     8.9382,     14.700,    4.533545e-03
  13,     8.9268,     14.700,    4.683561e-03
  14,     8.9127,     14.700,    4.889997e-03
  15,     8.9034,     14.700,    3.338594e-03
  16,     8.8911,     14.700,    3.195909e-03
  17,     8.8780,      7.270,    2.192607e-03
  18,     8.8707,     14.700,    4.221212e-03
  19,     8.8556,     14.700,    4.174960e-03
  20,     8.8439,     14.700,    3.727498e-03
  21,     8.8326,     14.700,    6.205777e-03
  22,     8.8064,     14.700,    5.266801e-03
  23,     8.7901,     14.700,    4.981581e-03
  24,     8.7804,     14.700,    3.339015e-03
  25,     8.7637,     14.700,    5.505601e-03
  26,     8.7519,     14.700,    3.910548e-03
  27,     8.7395,     14.700,    3.561995e-03
  28,     8.7234,     10.334,    3.611175e-03
  29,     8.7165,     14.700,    3.861635e-03
  30,     8.7089,     14.700,    4.977983e-03
  31,     8.6976,     14.700,    4.949963e-03
  32,     8.6829,     14.700,    3.586281e-03
  33,     8.6740,     14.700,    4.421619e-03
  34,     8.6596,     14.700,    4.045187e-03
  35,     8.6485,     14.700,    4.608577e-03
  36,     8.6297,     14.700,    5.299299e-03
  37,     8.6218,      8.560,    3.187658e-03
  38,     8.6137,      9.622,    2.941312e-03
  39,     8.6039,     14.700,    4.928042e-03
  40,     8.5925,     14.700,    5.354236e-03
  41,     8.5812,      5.202,    1.882611e-03
  42,     8.5749,      4.828,    1.353389e-03
  43,     8.5693,      2.701,    1.030579e-03
  44,     8.5631,     14.700,    8.350545e-03
  45,     8.5509,     10.415,    3.517098e-03
  46,     8.5436,      4.219,    8.935448e-04
  47,     8.5393,     11.019,    3.184243e-03
  48,     8.5305,     11.224,    2.936133e-03
  49,     8.5218,     12.331,    3.165022e-03
  50,     8.5108,     12.295,    2.935058e-03
  51,     8.5016,     14.700,    5.300906e-03
  52,     8.4859,     14.700,    3.444165e-03
  53,     8.4583,     14.700,    6.881995e-03
  54,     8.4467,      7.114,    1.286799e-01
  55,     8.4454,      4.023,    7.326171e-02
  56,     8.4439,      6.240,    6.072288e-02
  57,     8.4403,     14.443,    4.107333e-02
  58,     8.4324,     13.679,    1.300315e-02
  59,     8.4252,     12.152,    8.040051e-03
  60,     8.4145,     14.700,    8.295285e-03
  61,     8.3981,     14.700,    5.492563e-03
  62,     8.3798,     14.700,    4.036818e-03
  63,     8.3634,     14.700,    4.419010e-03
  64,     8.3495,     14.700,    2.932315e-03
  65,     8.3205,     14.700,    7.546796e-03
  66,     8.2909,     14.700,    4.666049e-03
  67,     8.2620,     14.700,    4.036808e-03
  68,     8.2414,     14.700,    5.471390e-03
  69,     8.2175,     14.700,    3.816215e-03
  70,     8.2019,     14.700,    4.002745e-03
  71,     8.1799,     14.700,    4.102743e-03
  72,     8.1691,     14.700,    5.354114e-03
  73,     8.1542,     14.700,    4.026952e-03
  74,     8.1468,     14.700,    4.282224e-03
  75,     8.1365,     14.700,    4.574370e-03
  76,     8.1194,     14.700,    6.494723e-03
  77,     8.1110,      5.857,    2.291180e-03
  78,     8.0975,     14.700,    4.540362e-03
  79,     8.0872,     14.700,    3.535349e-03
  80,     8.0731,     14.700,    3.516049e-03
  81,     8.0638,     14.700,    5.645803e-03
  82,     8.0462,      7.798,    2.124443e-03
  83,     8.0400,      6.732,    1.735324e-03
  84,     8.0344,     14.700,    3.261846e-03
  85,     8.0249,      6.875,    1.026479e-03
  86,     8.0172,      9.992,    2.898649e-03
  87,     8.0051,      6.383,    1.980669e-03
  88,     7.9940,     14.700,    2.834447e-03
  89,     7.9866,      8.052,    1.292701e-03
  90,     7.9777,      9.516,    2.558362e-03
  91,     7.9692,      8.100,    2.539650e-03
  92,     7.9634,      3.538,    1.134397e-03
  93,     7.9570,     12.426,    4.126299e-03
  94,     7.9464,      6.607,    2.227188e-03
  95,     7.9382,      8.723,    3.499069e-03
  96,     7.9320,     11.527,    2.535239e-03
  97,     7.9265,     10.028,    2.915419e-03
  98,     7.9208,      9.861,    2.555075e-03
  99,     7.9108,     12.907,    4.258974e-03
 100,     7.8959,     14.700,    3.875230e-03
 101,     7.8866,      4.669,    1.371437e-03
 102,     7.8795,     14.000,    3.670512e-03
 103,     7.8717,     11.468,    2.369602e-03
 104,     7.8646,     14.700,    3.133341e-03
 105,     7.8569,      6.123,    2.529808e-03
 106,     7.8506,      8.011,    2.313566e-03
 107,     7.8434,      8.601,    1.471816e-03
 108,     7.8341,     10.373,    3.423008e-03
 109,     7.8228,      9.064,    2.180743e-03
 110,     7.8105,     14.700,    5.099917e-03
 111,     7.8007,     14.700,    4.296651e-03
 112,     7.7931,      6.786,    1.862189e-03
 113,     7.7860,      3.600,    1.169110e-03
 114,     7.7808,      4.722,    1.250898e-03
 115,     7.7728,      8.509,    2.857904e-03
 116,     7.7650,      3.316,    8.406558e-04
 117,     7.7584,     11.645,    3.665297e-03
 118,     7.7510,     14.700,    4.192695e-03
 119,     7.7447,      2.957,    1.100518e-03
 120,     7.7385,     14.700,    4.750038e-03
 121,     7.7208,     14.700,    3.144514e-03
 122,     7.7054,     14.700,    3.267052e-03
 123,     7.6987,      8.188,    2.474196e-03
 124,     7.6913,      5.066,    1.725312e-03
 125,     7.6864,      4.088,    1.114733e-03
 126,     7.6798,      6.992,    2.625077e-03
 127,     7.6720,      7.004,    1.827709e-03
 128,     7.6663,     11.974,    2.570545e-03
 129,     7.6598,      1.553,    2.583847e-04
 130,     7.6561,      5.484,    2.078291e-03
 131,     7.6502,      6.317,    2.043191e-03
 132,     7.6431,      4.991,    1.315595e-03
 133,     7.6305,     14.700,    3.062645e-03
 134,     7.6198,     14.700,    4.341149e-03
 135,     7.6057,     14.700,    5.032926e-03
 136,     7.5900,     14.700,    4.591717e-03
 137,     7.5790,     14.700,    2.827074e-03
 138,     7.5673,      7.373,    2.807293e-03
 139,     7.5604,      5.480,    2.190764e-03
 140,     7.5556,      4.975,    9.470724e-04
 141,     7.5533,      1.387,    5.938333e-04
 142,     7.5469,      7.137,    2.859499e-03
 143,     7.5378,     13.526,    4.347358e-03
 144,     7.5254,     14.700,    4.511163e-03
 145,     7.5181,      7.553,    2.105590e-03
 146,     7.5108,      5.320,    1.863376e-03
 147,     7.5019,     14.700,    2.182452e-03
 148,     7.4944,     10.755,    2.847822e-03
 149,     7.4816,     14.700,    3.120943e-03
 150,     7.4733,      9.886,    2.225345e-03
 151,     7.4653,     14.700,    2.995713e-03
 152,     7.4553,     14.700,    3.733822e-03
 153,     7.4434,     14.700,    5.606358e-03
 154,     7.4279,     14.700,    4.617947e-03
 155,     7.4196,     14.700,    3.246527e-03
 156,     7.4096,     10.568,    3.258366e-03
 157,     7.4000,     14.700,    3.579406e-03
 158,     7.3929,      6.172,    1.511923e-03
 159,     7.3841,     14.700,    4.138161e-03
 160,     7.3728,     11.812,    2.803135e-03
 161,     7.3653,      4.953,    1.524679e-03
 162,     7.3580,     14.700,    3.498570e-03
 163,     7.3451,     14.700,    4.960022e-03
 164,     7.3371,     14.700,    4.274594e-03
 165,     7.3200,     14.700,    5.155653e-03
 166,     7.2945,     14.700,    4.538836e-03
 167,     7.2661,     14.700,    4.907714e-03
 168,     7.2464,     14.700,    4.081922e-03
 169,     7.2217,     14.700,    6.017193e-03
 170,     7.2030,     14.700,    5.322815e-03
 171,     7.1943,      0.693,    5.196179e-04
 172,     7.1925,      4.900,    1.150160e-03
 173,     7.1874,      4.681,    1.611943e-03
 174,     7.1792,      6.829,    3.039024e-03
 175,     7.1712,     14.700,    4.734845e-03
 176,     7.1579,     14.700,    4.082781e-03
 177,     7.1399,     14.700,    4.588478e-03
 178,     7.0995,     14.700,    3.226331e-03
 179,     7.0800,     14.700,    6.849615e-03
 180,     7.0672,     14.700,    2.897513e-03
 181,     7.0521,      8.874,    2.893608e-03
 182,     7.0467,      9.905,    2.667411e-03
 183,     7.0388,      9.702,    3.008830e-03
 184,     7.0317,     10.988,    2.630679e-03
 185,     7.0175,     14.700,    5.500198e-03
 186,     7.0038,     14.700,    4.048408e-03
 187,     6.9904,     14.700,    5.060542e-03
 188,     6.9739,     14.700,    3.959164e-03
 189,     6.9602,     14.700,    4.508231e-03
 190,     6.9469,      9.457,    2.821058e-03
 191,     6.9332,     14.700,    3.851397e-03
 192,     6.9256,     14.700,    2.655406e-03
 193,     6.9135,      6.871,    2.324654e-03
 194,     6.9073,      4.255,    1.529828e-03
 195,     6.9024,      4.933,    2.194698e-03
 196,     6.8953,      8.769,    3.088774e-03
 197,     6.8849,      8.616,    2.250848e-03
 198,     6.8766,     10.433,    2.042238e-03
 199,     6.8629,     14.700,    7.955573e-03
 200,     6.8450,     14.700,    6.825528e-03
 201,     6.8238,     14.700,    7.466830e-03
 202,     6.8077,     14.700,    6.783472e-03
 203,     6.7915,     14.700,    5.615146e-03
 204,     6.7803,     14.700,    5.482459e-03
 205,     6.7653,     14.700,    6.096592e-03
 206,     6.7589,     14.700,    3.953170e-03
 207,     6.7471,      9.899,    3.420936e-03
 208,     6.7400,     14.700,    3.940740e-03
 209,     6.7305,     11.463,    3.895496e-03
 210,     6.7231,     14.700,    3.179517e-03
 211,     6.7137,     12.146,    3.224913e-03
 212,     6.7001,      6.502,    1.509514e-03
 213,     6.6941,     14.700,    2.336202e-03
 214,     6.6816,     14.325,    2.316384e-03
 215,     6.6698,     14.700,    2.852282e-03
 216,     6.6560,     14.700,    4.586306e-03
 217,     6.6473,     14.700,    5.987468e-03
 218,     6.6327,     14.700,    3.929005e-03
 219,     6.6219,     14.700,    5.662557e-03
 220,     6.6096,     14.700,    5.413068e-03
 221,     6.5974,     10.688,    2.617659e-03
 222,     6.5887,      3.731,    9.560597e-04
 223,     6.5807,     13.185,    3.644670e-03
 224,     6.5734,      6.400,    2.640257e-03
 225,     6.5662,      8.183,    3.119086e-03
 226,     6.5548,     14.700,    4.269104e-03
 227,     6.5355,     11.157,    1.881744e-03
 228,     6.5279,     14.310,    4.099344e-03
 229,     6.5076,     14.700,    5.237066e-03
 230,     6.4952,     14.700,    4.723371e-03
 231,     6.4875,     14.700,    4.636700e-03
 232,     6.4769,     14.700,    4.315875e-03
 233,     6.4648,      7.609,    2.800387e-03
 234,     6.4562,     14.700,    4.801158e-03
 235,     6.4498,      4.606,    1.599834e-03
 236,     6.4467,      2.601,    6.069419e-04
 237,     6.4413,      8.800,    2.823925e-03
 238,     6.4336,      8.416,    2.214517e-03
 239,     6.4288,      5.702,    2.226064e-03
 240,     6.4196,     14.700,    7.164698e-03
 241,     6.4036,     14.700,    5.729760e-03
 242,     6.3898,     14.700,    4.551457e-03
 243,     6.3740,     14.700,    4.214964e-03
 244,     6.3646,     14.700,    5.075847e-03
 245,     6.3548,     14.700,    4.911804e-03
 246,     6.3431,     14.700,    5.336875e-03
 247,     6.3372,      5.547,    2.510467e-03
 248,     6.3311,      8.737,    3.035909e-03
 249,     6.3239,      4.911,    2.082865e-03
 250,     6.3170,      9.758,    3.347902e-03
 251,     6.3051,     13.654,    4.002632e-03
 252,     6.2947,     14.423,    4.752243e-03
 253,     6.2795,     14.524,    4.829422e-03
 254,     6.2659,     13.673,    3.636864e-03
 255,     6.2561,     14.446,    4.765750e-03
 256,     6.2477,      9.438,    2.888815e-03
 257,     6.2408,      3.448,    1.383976e-03
 258,     6.2362,     11.111,    2.842607e-03
 259,     6.2290,      5.294,    2.319182e-03
 260,     6.2216,      5.921,    1.928830e-03
 261,     6.2130,     12.559,    4.705189e-03
 262,     6.2061,      3.860,    1.805069e-03
 263,     6.2033,      5.320,    1.065092e-03
 264,     6.1989,      1.805,    5.616791e-04
 265,     6.1944,     12.195,    3.492046e-03
 266,     6.1871,      6.159,    2.278864e-03
 267,     6.1800,      3.871,    1.540951e-03
 268,     6.1742,     10.328,    2.996121e-03
 269,     6.1670,     10.846,    3.663850e-03
 270,     6.1603,     14.700,    3.127703e-03
 271,     6.1508,     12.713,    3.707340e-03
 272,     6.1306,     14.700,    2.117271e-03
 273,     6.1227,     14.700,    3.133644e-03
 274,     6.1165,      7.683,    2.273610e-03
 275,     6.1106,      4.532,    1.972392e-03
 276,     6.0959,     14.197,    2.984187e-03
 277,     6.0895,     14.527,    3.735098e-03
 278,     6.0735,     14.601,    3.682427e-03
 279,     6.0601,      9.540,    2.618446e-03
 280,     6.0516,     10.128,    2.050926e-03
 281,     6.0443,     13.509,    3.723558e-03
 282,     6.0299,     14.700,    5.181652e-03
 283,     6.0136,     14.700,    3.787656e-03
 284,     6.0050,     14.700,    3.905810e-03
 285,     5.9907,     14.700,    3.675667e-03
 286,     5.9826,      7.894,    1.726784e-03
 287,     5.9727,     14.700,    3.096354e-03
 288,     5.9628,     14.700,    3.960129e-03
 289,     5.9502,     14.700,    4.123623e-03
 290,     5.9364,     14.700,    3.809999e-03
 291,     5.9107,     11.084,    3.622095e-02
 292,     5.9007,     13.013,    4.192431e-02
 293,     5.8887,     14.700,    4.549986e-03
 294,     5.8787,     14.700,    4.684520e-03
 295,     5.8631,     14.700,    3.855483e-03
 296,     5.8461,     14.700,    4.535634e-03
 297,     5.8333,     14.700,    3.948607e-03
 298,     5.8252,     10.066,    1.852510e-03
 299,     5.8182,      5.577,    1.134629e-03
 300,     5.8125,      8.538,    2.663845e-03
 301,     5.8044,     10.925,    3.520812e-03
 302,     5.7809,     14.700,    3.711924e-03
 303,     5.7640,     14.700,    3.600404e-03
 304,     5.7483,     14.700,    3.336398e-03
 305,     5.7354,     14.700,    3.587139e-03
 306,     5.7184,     14.700,    4.486680e-03
 307,     5.6849,     14.700,    3.879657e-03
 308,     5.6775,     14.700,    3.075389e-03
 309,     5.6687,     10.881,    3.190856e-03
 310,     5.6626,      4.068,    9.574475e-04
 311,     5.6568,     11.071,    2.521878e-03
 312,     5.6501,      6.350,    1.650491e-03
 313,     5.6420,     14.700,    4.054265e-03
 314,     5.6291,     14.700,    3.951368e-03
 315,     5.6180,     13.339,    3.275949e-03
 316,     5.6090,     14.700,    2.773592e-03
 317,     5.5989,     14.700,    4.863759e-03
 318,     5.5883,      5.131,    1.884655e-03
 319,     5.5782,     14.700,    5.256149e-03
 320,     5.5582,     14.700,    4.667077e-03
 321,     5.5467,     14.700,    3.888442e-03
 322,     5.5228,     12.694,    3.716004e-02
 323,     5.5186,     14.700,    4.324462e-02
 324,     5.5068,     14.700,    5.300922e-03
 325,     5.4864,     14.700,    6.687185e-03
 326,     5.4754,     14.700,    3.987044e-03
 327,     5.4631,     14.700,    5.239039e-03
 328,     5.4532,     14.700,    4.571566e-03
 329,     5.4434,     14.700,    4.024587e-03
 330,     5.4370,     14.700,    4.041280e-03
 331,     5.4257,     14.700,    4.424508e-03
 332,     5.4180,     14.700,    3.021201e-03
 333,     5.4067,     14.700,    4.399916e-03
 334,     5.3950,     14.700,    3.616859e-03
 335,     5.3816,     14.700,    2.763945e-03
 336,     5.3690,     14.700,    4.655334e-03
 337,     5.3545,     14.700,    3.114106e-03
 338,     5.3421,     10.940,    1.461685e-02
 339,     5.3377,     11.242,    1.704928e-02
 340,     5.3294,      9.940,    1.792727e-02
 341,     5.3252,     13.871,    2.756500e-02
 342,     5.2938,      9.059,    1.395212e-02
 343,     5.2835,     14.333,    2.261057e-02
 344,     5.2802,     13.822,    8.053258e-03
 345,     5.2707,     12.938,    1.098609e-02
 346,     5.2614,     11.780,    2.629299e-03
 347,     5.2514,     10.264,    2.689779e-03
 348,     5.2438,      6.213,    1.556367e-03
 349,     5.2362,      2.412,    9.464452e-04
 350,     5.2263,     14.700,    6.059838e-03
 351,     5.2136,     14.700,    3.366992e-03
 352,     5.2061,     14.700,    2.947414e-03
 353,     5.1976,      3.755,    1.403849e-03
 354,     5.1905,      2.615,    8.793090e-04
 355,     5.1859,     10.768,    2.270349e-03
 356,     5.1788,      3.369,    1.048054e-03
 357,     5.1725,      6.213,    2.327124e-03
 358,     5.1658,      8.536,    1.861449e-03
 359,     5.1566,     14.700,    3.762728e-03
 360,     5.1427,     14.700,    3.511014e-03
 361,     5.1346,      8.781,    2.420714e-03
 362,     5.1263,     12.126,    2.678499e-03
 363,     5.1198,      5.845,    1.559451e-03
 364,     5.1145,      4.963,    1.683550e-03
 365,     5.1070,      6.950,    2.114949e-03
 366,     5.0994,      8.984,    2.205887e-03
 367,     5.0915,      7.714,    1.779565e-03
 368,     5.0837,     14.700,    3.539662e-03
 369,     5.0708,     12.388,    2.814560e-03
 370,     5.0592,     14.700,    3.665963e-03
 371,     5.0424,     14.700,    3.287875e-03
 372,     5.0201,     14.700,    5.405384e-03
 373,     5.0065,     14.700,    4.581247e-03
 374,     4.9923,     14.700,    3.789605e-03
 375,     4.9789,     14.700,    3.414485e-03
 376,     4.9606,     14.700,    5.524661e-03
 377,     4.9453,     14.700,    3.387412e-03
 378,     4.9319,     14.700,    4.342719e-03
 379,     4.9205,      7.912,    2.497858e-03
 380,     4.9088,     14.700,    5.670768e-03
 381,     4.8909,     14.700,    3.936006e-03
 382,     4.8779,     14.700,    3.569635e-03
 383,     4.8684,     14.700,    3.986028e-03
 384,     4.8577,     14.700,    3.213342e-03
 385,     4.8542,     14.700,    1.610276e-01
 386,     4.8404,     14.700,    1.563205e-01
 387,     4.8266,     14.700,    1.593269e-01
 388,     4.8124,     14.700,    1.578168e-01
 389,     4.7980,     14.700,    1.673674e-01
 390,     4.7833,     14.700,    1.718860e-01
 391,     4.7715,      0.754,    1.296391e-02
 392,     4.7699,      4.379,    3.033205e-02
 393,     4.7643,     14.700,    1.025460e-01
 394,     4.7583,     14.700,    8.300662e-02
 395,     4.7547,     14.700,    1.495776e-01
 396,     4.7438,     14.700,    1.432322e-01
 397,     4.7306,     14.700,    1.495229e-01
 398,     4.7166,     14.700,    1.528917e-01
 399,     4.7024,     14.700,    1.576154e-01
 400,     4.6876,     14.700,    1.572801e-01
 401,     4.6737,     14.700,    1.627638e-01
 402,     4.6696,      6.270,    1.620361e-03
 403,     4.6626,      6.532,    1.823876e-03
 404,     4.6574,      5.226,    1.164067e-03
 405,     4.6509,     10.117,    2.430869e-03
 406,     4.6439,     14.700,    3.465011e-03
 407,     4.6334,      8.904,    2.200370e-03
 408,     4.6210,     14.700,    4.918474e-03
 409,     4.6116,      7.602,    2.384420e-03
 410,     4.6024,     14.700,    3.664502e-03
 411,     4.5914,     14.700,    5.366908e-03
 412,     4.5757,     13.550,    3.605967e-03
 413,     4.5612,     14.700,    3.992960e-03
 414,     4.5481,     14.700,    4.683480e-03
 415,     4.5415,      6.968,    2.736439e-03
 416,     4.5295,     14.700,    3.113751e-03
 417,     4.5231,      5.230,    1.534564e-03
 418,     4.5174,     10.489,    2.339256e-03
 419,     4.5070,     14.700,    3.367642e-03
 420,     4.4991,      5.629,    1.871819e-03
 421,     4.4924,      4.228,    1.571318e-03
 422,     4.4847,     13.805,    4.157944e-03
 423,     4.4744,      5.759,    1.772840e-03
 424,     4.4627,     14.700,    3.702679e-03
 425,     4.4508,     14.700,    3.811385e-03
 426,     4.4368,     14.700,    3.065819e-03
 427,     4.4304,     11.609,    2.799702e-03
 428,     4.4190,     14.700,    3.948899e-03
 429,     4.4031,     14.700,    3.404816e-03
 430,     4.3888,     13.242,    1.996375e-02
 431,     4.3819,     12.492,    2.832783e-02
 432,     4.3793,     12.065,    1.670710e-02
 433,     4.3734,     14.700,    2.871683e-02
