index,   freq_ppm,   decay_hz, amplitude
   1,     9.0875,     14.700,    4.653153e-03
   2,     9.0642,     14.700,    5.687235e-03
   3,     9.0243,     14.700,    6.246287e-03
   4,     9.0013,     14.700,    5.890674e-03
   5,     8.9796,     14.700,    5.915874e-03
   6,     8.9602,     14.700,    6.281212e-03
   7,     8.9199,     14.700,    5.377711e-03
   8,     8.9071,     14.700,    3.621931e-03
   9,     8.8942,     14.700,    4.758651e-03
  10,     8.8738,     14.700,    4.258450e-03
  11,     8.8617,     14.700,    3.784171e-03
  12,     8.8487,     14.700,    4.389758e-03
  13,     8.8306,     14.700,    2.931601e-03
  14,     8.8260,      5.200,    1.356574e-03
  15,     8.8133,     14.700,    3.522766e-03
  16,     8.8043,     14.700,    4.037290e-03
  17,     8.7839,     14.700,    3.424570e-03
  18,     8.7598,     14.700,    6.071414e-03
  19,     8.7344,     14.700,    4.714044e-03
  20,     8.7163,     14.700,    3.610621e-03
  21,     8.6934,     14.700,    5.229660e-03
  22,     8.6641,     14.700,    4.658335e-03
  23,     8.6458,     14.700,    3.558028e-03
  24,     8.6238,     14.700,    3.482742e-03
  25,     8.6109,     14.700,    3.219928e-03
  26,     8.6026,     14.700,    1.894242e-03
  27,     8.5912,     14.700,    3.249420e-03
  28,     8.5811,     14.700,    1.862112e-03
  29,     8.5732,      8.514,    1.669151e-03
  30,     8.5636,     10.177,    9.397442e-03
  31,     8.4475,      5.259,    8.118805e-02
  32,     8.4458,      5.354,    1.943868e-01
  33,     8.4443,      8.217,    2.081677e-01
  34,     8.4394,     12.297,    4.401166e-02
  35,     8.4319,     14.081,    2.795167e-02
  36,     8.4136,     12.655,    1.584041e-02
  37,     8.3775,     14.700,    6.042945e-03
  38,     8.3615,     14.700,    4.987438e-03
  39,     8.3474,     14.700,    4.561240e-03
  40,     8.3208,     14.700,    9.076454e-03
  41,     8.3031,     14.700,    4.797915e-03
  42,     8.2872,     14.700,    3.896671e-03
  43,     8.2624,     14.700,    5.734018e-03
  44,     8.2437,     10.404,    2.901002e-03
  45,     8.2374,      5.142,    1.297395e-03
  46,     8.2310,      4.021,    3.082599e-04
  47,     8.2275,     11.306,    2.678169e-03
  48,     8.2150,     14.700,    4.843128e-03
  49,     8.1980,     14.700,    5.191152e-03
  50,     8.1789,     14.700,    4.909854e-03
  51,     8.1612,     14.700,    5.518188e-03
  52,     8.1334,     14.700,    5.493015e-03
  53,     8.1035,     14.700,    3.973876e-03
  54,     8.0820,     14.700,    4.799458e-03
  55,     8.0365,     14.700,    8.087918e-03
  56,     8.0091,     14.700,    6.638622e-03
  57,     7.9686,     14.700,    6.205346e-03
  58,     7.9452,     14.700,    5.275817e-03
  59,     7.9153,     14.700,    6.750576e-03
  60,     7.8659,     14.700,    8.432521e-03
  61,     7.8504,     14.700,    6.951054e-03
  62,     7.8106,     14.700,    3.852535e-03
  63,     7.7989,     14.700,    4.316082e-03
  64,     7.7915,     14.700,    4.199407e-03
  65,     7.7799,     14.700,    3.710882e-03
  66,     7.7687,     14.700,    4.223692e-03
  67,     7.7579,     14.700,    3.864915e-03
  68,     7.7258,     14.700,    5.121721e-03
  69,     7.6964,     14.700,    5.425855e-03
  70,     7.6605,     14.700,    5.645392e-03
  71,     7.6243,     14.700,    5.377930e-03
  72,     7.6098,     14.700,    4.892619e-03
  73,     7.5926,     14.700,    5.587813e-03
  74,     7.5772,     14.700,    4.312457e-03
  75,     7.5709,     14.700,    2.924656e-03
  76,     7.5538,     14.700,    2.854045e-03
  77,     7.5371,     14.700,    4.905567e-03
  78,     7.5249,     14.700,    3.179240e-03
  79,     7.5150,     14.700,    3.306032e-03
  80,     7.5038,     14.700,    2.788657e-03
  81,     7.4969,      5.811,    1.877861e-03
  82,     7.4883,     14.700,    3.131459e-03
  83,     7.4814,     14.700,    3.087499e-03
  84,     7.4733,     11.699,    3.309896e-03
  85,     7.4562,     14.700,    6.747626e-03
  86,     7.4379,     14.700,    7.245203e-03
  87,     7.4202,     14.700,    4.437296e-03
  88,     7.4093,     14.700,    5.309915e-03
  89,     7.3997,     14.700,    4.917533e-03
  90,     7.3870,     14.700,    5.737576e-03
  91,     7.3769,     14.700,    4.139955e-03
  92,     7.3625,     14.700,    6.020695e-03
  93,     7.3493,     14.700,    5.549687e-03
  94,     7.3301,     14.700,    5.406880e-03
  95,     7.3178,     14.700,    6.667188e-03
  96,     7.3053,     14.700,    5.708290e-03
  97,     7.2839,     14.700,    6.896072e-03
  98,     7.2576,     14.700,    6.965419e-03
  99,     7.2409,     14.700,    2.931010e-03
 100,     7.2333,     14.000,    3.162731e-03
 101,     7.2218,      7.254,    1.886308e-03
 102,     7.2155,     14.694,    4.444464e-03
 103,     7.2072,     14.700,    5.491441e-03
 104,     7.1916,     14.700,    5.860097e-03
 105,     7.1709,     14.700,    4.479107e-03
 106,     7.1632,     14.700,    3.809798e-03
 107,     7.1513,     14.700,    5.791529e-03
 108,     7.1386,     14.700,    5.273386e-03
 109,     7.1235,     14.700,    4.124396e-03
 110,     7.1115,     14.700,    4.059658e-03
 111,     7.1027,     14.700,    3.952798e-03
 112,     7.0960,     14.700,    3.695540e-03
 113,     7.0791,     14.700,    8.412614e-03
 114,     7.0641,     14.700,    3.819249e-03
 115,     7.0442,     14.700,    4.267522e-03
 116,     7.0268,     14.700,    4.633446e-03
 117,     7.0061,     14.700,    3.554240e-03
 118,     6.9956,     14.700,    3.447865e-03
 119,     6.9832,     14.700,    3.361164e-03
 120,     6.9477,     14.700,    4.068378e-03
 121,     6.9353,     14.700,    5.503700e-03
 122,     6.9227,     14.700,    6.256476e-03
 123,     6.9018,     14.700,    6.302922e-03
 124,     6.8720,     14.700,    6.331088e-03
 125,     6.8551,     14.700,    6.132136e-03
 126,     6.8399,     14.700,    5.040683e-03
 127,     6.8180,     14.700,    4.599997e-03
 128,     6.7864,     14.700,    4.596923e-03
 129,     6.7706,     14.700,    4.558621e-03
 130,     6.7496,     14.700,    5.118579e-03
 131,     6.7235,     14.700,    4.124628e-03
 132,     6.6796,     14.700,    4.359805e-03
 133,     6.6570,     14.700,    4.287095e-03
 134,     6.6316,     14.700,    4.640849e-03
 135,     6.6188,      7.817,    1.833119e-03
 136,     6.6129,      3.887,    1.023626e-03
 137,     6.6083,      7.866,    2.381600e-03
 138,     6.5978,     14.700,    3.136132e-03
 139,     6.5830,      3.314,    7.538522e-04
 140,     6.5766,     14.700,    3.544428e-03
 141,     6.5665,      6.585,    1.049206e-03
 142,     6.5610,     14.700,    3.010193e-03
 143,     6.5504,     14.700,    3.001495e-03
 144,     6.5388,     12.161,    3.508014e-03
 145,     6.5263,     14.700,    2.852008e-03
 146,     6.5161,     14.700,    5.122444e-03
 147,     6.4998,     14.700,    4.076682e-03
 148,     6.4848,     14.700,    5.537840e-03
 149,     6.4635,     14.700,    4.848334e-03
 150,     6.4535,     14.700,    3.841017e-03
 151,     6.4402,     14.700,    4.641539e-03
 152,     6.4217,     14.700,    3.617353e-03
 153,     6.4024,     14.700,    3.497055e-03
 154,     6.3872,     14.700,    5.357536e-03
 155,     6.3638,     14.700,    7.795101e-03
 156,     6.3450,     14.700,    4.025027e-03
 157,     6.3230,     14.700,    3.993436e-03
 158,     6.2549,     14.700,    3.563842e-03
 159,     6.2162,     14.700,    3.729360e-03
 160,     6.2093,     14.700,    3.225725e-03
 161,     6.1984,     14.700,    2.939455e-03
 162,     6.1917,      4.810,    1.265197e-03
 163,     6.1851,      6.076,    1.589080e-03
 164,     6.1772,      9.452,    3.176294e-03
 165,     6.1642,     14.700,    5.407339e-03
 166,     6.1551,     14.700,    4.346554e-03
 167,     6.1453,     14.700,    4.758406e-03
 168,     6.1344,     14.700,    4.507686e-03
 169,     6.1275,     14.700,    5.455039e-03
 170,     6.1089,     14.700,    4.947728e-03
 171,     6.0989,     14.700,    4.246940e-03
 172,     6.0884,     14.700,    5.866098e-03
 173,     6.0699,     14.700,    5.524888e-03
 174,     6.0595,     14.700,    5.365128e-03
 175,     6.0503,     14.700,    3.483613e-03
 176,     6.0396,     14.700,    4.045026e-03
 177,     6.0206,     14.700,    5.243720e-03
 178,     6.0086,     14.700,    3.494545e-03
 179,     5.9968,     14.700,    3.917692e-03
 180,     5.9879,     14.700,    3.111184e-03
 181,     5.9690,     14.700,    4.883989e-03
 182,     5.9551,     14.700,    5.011672e-03
 183,     5.9367,     14.700,    3.914679e-03
 184,     5.9267,     14.700,    3.952665e-03
 185,     5.9148,     14.700,    3.226571e-03
 186,     5.9054,      6.416,    2.139941e-03
 187,     5.8954,     14.700,    3.847212e-03
 188,     5.8824,     14.700,    3.425883e-03
 189,     5.8654,     14.700,    5.598657e-03
 190,     5.8496,     14.700,    3.937915e-03
 191,     5.8357,     14.700,    4.518976e-03
 192,     5.8221,     14.700,    4.343979e-03
 193,     5.8049,     14.700,    4.796602e-03
 194,     5.7823,     14.700,    5.489286e-03
 195,     5.7739,     14.700,    4.264117e-03
 196,     5.7620,     14.700,    4.122177e-03
 197,     5.7513,      4.587,    2.005592e-03
 198,     5.7414,     14.700,    4.902223e-03
 199,     5.7267,     14.700,    4.045255e-03
 200,     5.6978,     14.700,    5.723781e-03
 201,     5.6869,     14.700,    4.039829e-03
 202,     5.6688,     14.700,    5.442172e-03
 203,     5.6497,     14.700,    4.747019e-03
 204,     5.6379,     14.700,    4.526092e-03
 205,     5.6179,     14.700,    5.797727e-03
 206,     5.5968,     14.700,    5.407173e-03
 207,     5.5786,     14.700,    5.287866e-03
 208,     5.5509,     14.700,    7.300143e-03
 209,     5.5260,     14.700,    6.719615e-03
 210,     5.5089,     14.700,    6.838167e-03
 211,     5.4813,     14.700,    8.038031e-03
 212,     5.4514,     14.700,    6.340226e-03
 213,     5.4331,     14.700,    6.341405e-03
 214,     5.4077,     14.700,    5.979620e-03
 215,     5.3818,     14.700,    4.430830e-03
 216,     5.3669,     14.700,    4.142115e-03
 217,     5.3479,     14.700,    4.890966e-03
 218,     5.3355,     14.700,    5.896739e-03
 219,     5.3095,     14.700,    5.592037e-03
 220,     5.2963,     14.700,    4.371372e-03
 221,     5.2812,     14.700,    5.688569e-03
 222,     5.2684,     14.700,    3.975848e-03
 223,     5.2596,     14.700,    4.705873e-03
 224,     5.2412,     14.700,    6.023618e-03
 225,     5.2234,     14.700,    5.983957e-03
 226,     5.2115,     14.700,    4.177247e-03
 227,     5.1935,     14.700,    3.296003e-03
 228,     5.1744,      6.212,    6.102060e-03
 229,     5.1719,     13.672,    6.079923e-02
 230,     5.1499,     14.700,    2.674372e-03
 231,     5.1398,     14.700,    2.615825e-03
 232,     5.1175,     14.700,    5.000294e-03
 233,     5.1070,     14.700,    4.242554e-03
 234,     5.0957,     14.700,    4.530174e-03
 235,     5.0796,     14.700,    3.457834e-03
 236,     5.0698,     14.700,    3.419889e-03
 237,     5.0608,     14.700,    3.850844e-03
 238,     5.0492,     14.700,    4.115302e-03
 239,     5.0363,     14.700,    4.754595e-03
 240,     5.0259,     14.700,    3.004369e-03
 241,     5.0178,     14.700,    2.942329e-03
 242,     4.9996,     14.700,    4.647838e-03
 243,     4.9874,     14.700,    5.744474e-03
 244,     4.9781,      7.685,    1.498171e-03
 245,     4.9728,     12.299,    3.683542e-03
 246,     4.9618,     13.027,    2.687093e-03
 247,     4.9509,     14.700,    5.602061e-03
 248,     4.9451,      6.415,    1.638598e-03
 249,     4.9334,     14.700,    4.858504e-03
 250,     4.9167,     14.700,    4.362391e-03
 251,     4.9042,     14.700,    3.912271e-03
 252,     4.8900,     14.700,    2.418079e-02
 253,     4.8756,     14.700,    5.039593e-03
 254,     4.8624,     14.700,    5.332721e-03
 255,     4.8495,     14.700,    2.053889e-02
 256,     4.8363,     14.700,    1.938132e-02
 257,     4.8223,     14.700,    2.007651e-02
 258,     4.8079,     14.700,    2.058716e-02
 259,     4.7932,     14.700,    2.130961e-02
 260,     4.7786,     14.700,    3.839887e-02
 261,     4.7602,     14.700,    2.273466e-02
 262,     4.7487,     14.700,    2.002986e-02
 263,     4.7340,     14.700,    1.901522e-02
 264,     4.7174,     14.700,    2.005639e-02
 265,     4.7043,     14.700,    1.747039e-02
 266,     4.6886,      8.339,    2.974270e-03
 267,     4.6784,     14.700,    3.857494e-03
 268,     4.6667,     14.700,    4.093568e-03
 269,     4.6583,     14.700,    4.894084e-03
 270,     4.6423,     14.700,    7.738946e-03
 271,     4.6319,     14.700,    7.389099e-03
 272,     4.6194,     14.700,    4.948700e-03
 273,     4.6112,     14.700,    4.452026e-03
 274,     4.5993,     14.700,    5.193400e-03
 275,     4.5879,     14.700,    3.839944e-03
 276,     4.5411,     14.700,    7.676166e-03
 277,     4.5178,     14.700,    8.087182e-03
 278,     4.4536,     14.700,    7.837814e-03
 279,     4.3624,     14.700,    7.903145e-03
 280,     4.3423,     14.700,    8.368140e-03
 281,     4.3238,     14.700,    8.333280e-03
 282,     4.2975,     14.700,    8.521456e-03
 283,     4.2860,     14.700,    5.313188e-03
 284,     4.2755,     14.700,    4.131435e-03
 285,     4.2585,     14.700,    3.634108e-03
 286,     4.2419,     14.700,    4.746991e-03
 287,     4.2287,     14.700,    5.226182e-03
 288,     4.2093,     14.700,    6.388700e-03
 289,     4.1972,     14.700,    7.680476e-03
 290,     4.1831,     14.700,    7.834075e-03
 291,     4.1706,     14.700,    8.409386e-03
 292,     4.1612,     14.700,    6.092256e-03
 293,     4.1562,     14.700,    1.021180e-02
 294,     4.1322,     11.854,    5.595366e-02
 295,     4.1225,     14.700,    1.023423e-01
 296,     4.1126,     13.808,    7.963898e-02
 297,     4.1075,     13.448,    1.014205e-01
 298,     4.1030,     14.436,    1.528089e-01
 299,     4.0965,     14.700,    1.481529e-02
 300,     4.0526,     14.700,    1.803753e-02
 301,     4.0264,     10.010,    6.106275e-02
 302,     4.0246,     13.507,    1.836981e-01
 303,     4.0092,     14.642,    2.917630e-01
 304,     3.9905,     13.400,    1.239709e-01
 305,     3.9875,     14.376,    1.665346e-01
 306,     3.9844,     14.700,    1.578149e-01
 307,     3.9388,     13.112,    2.289096e-02
 308,     3.9351,     13.493,    2.716467e-02
 309,     3.9268,     13.506,    4.229970e-02
 310,     3.9228,     13.753,    4.904804e-02
 311,     3.9022,      8.303,    9.618100e-03
 312,     3.8957,     11.949,    7.017104e-02
 313,     3.8910,     14.700,    9.744979e-02
 314,     3.8833,     13.778,    1.196617e-01
 315,     3.8787,     10.422,    7.151793e-02
 316,     3.8696,     10.936,    3.149913e-02
 317,     3.8556,      5.545,    1.664859e-02
 318,     3.8530,      7.988,    2.106416e-02
 319,     3.8464,      6.531,    7.449997e-03
 320,     3.8428,      6.003,    6.002451e-03
 321,     3.8337,      4.727,    8.151856e-03
 322,     3.8291,     14.700,    3.695935e-02
 323,     3.8190,     14.700,    5.427705e-02
 324,     3.8123,     14.700,    3.525131e-02
 325,     3.7990,     14.700,    7.000072e-02
 326,     3.7952,     12.774,    1.798812e-01
 327,     3.7854,      7.617,    1.220044e-01
 328,     3.7828,     10.577,    1.495809e-01
 329,     3.7762,     10.580,    4.673434e-01
 330,     3.7669,     10.940,    4.958262e-01
 331,     3.7609,      9.903,    3.269898e-02
 332,     3.7577,     11.195,    2.220005e-01
 333,     3.7489,      7.858,    1.696211e-02
 334,     3.7416,     12.657,    2.445993e-02
 335,     3.7100,     12.271,    2.298368e-01
 336,     3.7052,     14.700,    2.335837e-01
 337,     3.6957,     11.861,    2.579532e-01
 338,     3.6932,      6.949,    5.370601e-02
 339,     3.6906,     10.618,    1.024211e-01
 340,     3.6882,     10.912,    8.107661e-02
 341,     3.6773,      7.795,    2.517917e-02
 342,     3.6703,      4.925,    6.455513e-03
 343,     3.6624,     14.700,    8.525057e-02
 344,     3.6556,     14.700,    6.241102e-02
 345,     3.6507,     14.700,    7.194724e-02
 346,     3.6450,     14.700,    1.076999e-01
 347,     3.6394,     14.700,    4.497836e-02
 348,     3.6299,     14.700,    2.189969e-02
 349,     3.5942,     14.094,    5.277694e-02
 350,     3.5790,     13.104,    1.050279e-01
 351,     3.5656,      1.385,    2.804750e-03
 352,     3.5589,     13.112,    2.661666e-01
 353,     3.5497,     14.700,    1.035476e-01
 354,     3.5443,     13.820,    2.456615e-01
 355,     3.5339,     14.700,    7.622320e-02
 356,     3.5208,     14.700,    6.476664e-03
 357,     3.4809,     14.700,    3.496975e-03
 358,     3.4676,     14.700,    6.219546e-03
 359,     3.4607,     12.824,    4.250243e-03
 360,     3.4521,      4.343,    1.661321e-03
 361,     3.4471,      5.917,    2.145261e-03
 362,     3.4254,     10.718,    2.909290e-02
 363,     3.4165,     12.134,    6.569019e-02
 364,     3.4108,     13.532,    5.952809e-02
 365,     3.4077,     10.682,    3.269092e-02
 366,     3.4021,     12.066,    9.342956e-02
 367,     3.3932,      9.372,    3.524066e-02
 368,     3.3848,      8.660,    4.365873e-03
 369,     3.3766,     14.700,    1.581407e-02
 370,     3.3722,      8.825,    7.480686e-03
 371,     3.3656,      8.670,    7.310294e-03
 372,     3.3453,      9.953,    4.622744e-02
 373,     3.3366,     12.034,    1.051035e-01
 374,     3.3307,      9.382,    2.804565e-02
 375,     3.3275,     11.713,    4.967571e-02
 376,     3.3220,     11.093,    6.845918e-02
 377,     3.3132,     14.700,    5.070265e-02
 378,     3.2470,     14.700,    2.114346e-02
 379,     3.2405,     14.700,    1.739024e-02
 380,     3.2347,     14.700,    2.021467e-02
 381,     3.2079,     14.700,    5.427316e-03
 382,     3.1963,     14.700,    5.890844e-03
 383,     3.1806,     14.700,    5.254364e-03
 384,     3.1625,     14.700,    5.157315e-03
 385,     3.1217,     14.700,    4.597333e-03
 386,     3.0325,     14.700,    5.738851e-03
 387,     3.0155,     14.700,    5.628653e-03
 388,     2.9988,     14.700,    4.588668e-03
 389,     2.9897,     14.700,    4.224217e-03
 390,     2.9786,     14.700,    3.952662e-03
 391,     2.9687,     14.700,    3.552381e-03
 392,     2.9586,     14.700,    4.162302e-03
 393,     2.9417,     14.700,    4.762987e-03
 394,     2.9233,     14.700,    5.444231e-03
 395,     2.9076,     14.700,    6.333729e-03
 396,     2.8993,     14.700,    3.257479e-03
 397,     2.8914,     14.700,    4.199613e-03
 398,     2.8697,     14.700,    3.234950e-03
 399,     2.8533,     14.700,    2.590651e-03
 400,     2.8346,     14.700,    3.824488e-03
 401,     2.8255,     14.700,    4.119711e-03
 402,     2.8186,     12.887,    3.613511e-03
 403,     2.8068,     14.700,    5.172793e-03
 404,     2.7739,     14.700,    3.212157e-03
 405,     2.7471,     14.700,    4.290896e-03
 406,     2.7300,     14.700,    3.878518e-03
 407,     2.7185,     14.700,    1.346080e-02
 408,     2.7009,     14.700,    3.446564e-03
 409,     2.6845,     14.700,    3.778055e-03
 410,     2.6610,     14.700,    5.606328e-03
 411,     2.6448,     14.700,    4.481601e-03
 412,     2.6244,     14.700,    5.460688e-03
 413,     2.6075,     14.700,    4.441116e-03
 414,     2.5990,     14.700,    4.845418e-03
 415,     2.5802,     14.700,    5.796452e-03
 416,     2.5620,      5.151,    1.751678e-03
 417,     2.5536,     14.700,    1.842999e-03
 418,     2.5454,     14.700,    4.020382e-03
 419,     2.5376,     14.700,    3.222276e-03
 420,     2.5223,     14.700,    3.242525e-03
 421,     2.5127,     14.700,    3.941117e-03
 422,     2.5029,     14.700,    3.631206e-03
 423,     2.4929,     14.700,    5.640501e-03
 424,     2.4867,     14.700,    2.599793e-03
 425,     2.4734,     14.700,    1.960137e-02
 426,     2.4662,     14.700,    1.451263e-02
 427,     2.4596,     14.700,    2.127035e-02
 428,     2.4314,     14.700,    2.402829e-03
 429,     2.4211,     14.700,    3.104142e-03
 430,     2.3926,     14.700,    4.120797e-03
 431,     2.3634,     12.939,    2.305074e-02
 432,     2.3548,      9.752,    2.825826e-02
 433,     2.3527,     10.927,    3.330775e-02
