index,   freq_ppm,   decay_hz, amplitude
   1,     9.0646,     14.700,    3.509895e-03
   2,     9.0585,      7.430,    1.241371e-03
   3,     9.0502,     14.700,    2.756333e-03
   4,     9.0394,     14.700,    3.753135e-03
   5,     9.0276,      4.158,    6.003877e-04
   6,     9.0234,     14.700,    3.123046e-03
   7,     9.0152,     14.700,    2.344120e-03
   8,     9.0009,     14.700,    3.254688e-03
   9,     8.9916,     14.700,    3.341966e-03
  10,     8.9837,     14.700,    2.767616e-03
  11,     8.9697,     14.700,    2.476449e-03
  12,     8.9516,     14.700,    3.739360e-03
  13,     8.9381,      4.525,    1.001543e-03
  14,     8.9286,     14.700,    4.008488e-03
  15,     8.9145,     14.700,    2.772020e-03
  16,     8.8981,     14.700,    2.531920e-03
  17,     8.8764,     14.700,    2.964962e-03
  18,     8.8648,      8.827,    1.645169e-03
  19,     8.8578,     10.794,    1.597457e-03
  20,     8.8467,     14.614,    2.041639e-03
  21,     8.8327,     14.700,    2.533724e-03
  22,     8.8209,     14.700,    1.648142e-03
  23,     8.8000,     14.700,    4.009786e-03
  24,     8.7740,     14.700,    3.164601e-03
  25,     8.7551,     14.700,    3.019539e-03
  26,     8.7389,     14.700,    2.645357e-03
  27,     8.7189,     14.700,    3.817899e-03
  28,     8.6966,     14.700,    3.920596e-03
  29,     8.6783,     14.700,    3.267091e-03
  30,     8.6625,     14.700,    2.851590e-03
  31,     8.6508,     14.700,    2.943740e-03
  32,     8.6389,     14.700,    2.289809e-03
  33,     8.6240,     14.700,    2.212728e-03
  34,     8.6116,     14.700,    2.503468e-03
  35,     8.6024,      5.682,    1.080330e-03
  36,     8.5945,     14.700,    2.168318e-03
  37,     8.5800,     14.700,    4.867863e-03
  38,     8.5601,     14.700,    5.526467e-03
  39,     8.5455,     14.700,    4.179509e-03
  40,     8.5319,     14.700,    3.901372e-03
  41,     8.5183,     14.700,    4.616518e-03
  42,     8.4957,     14.700,    5.029338e-03
  43,     8.4780,     14.700,    3.283229e-03
  44,     8.4456,     10.253,    5.955597e-02
  45,     8.4362,     14.700,    5.757218e-03
  46,     8.4251,     14.700,    5.317104e-03
  47,     8.4095,     14.700,    4.559782e-03
  48,     8.3819,     14.700,    4.143982e-03
  49,     8.3637,     14.700,    4.101841e-03
  50,     8.3450,     14.700,    3.528011e-03
  51,     8.3202,     14.095,    4.004851e-03
  52,     8.3110,     12.512,    2.860556e-03
  53,     8.3034,     12.814,    2.668109e-03
  54,     8.2912,     12.939,    2.883289e-03
  55,     8.2828,     12.184,    3.812517e-03
  56,     8.2731,      8.376,    1.848347e-03
  57,     8.2665,      4.728,    1.050580e-03
  58,     8.2592,     12.202,    1.929256e-03
  59,     8.2493,     14.700,    3.943204e-03
  60,     8.2383,     14.700,    2.711238e-03
  61,     8.2311,     14.700,    2.454564e-03
  62,     8.2144,     12.012,    3.226226e-03
  63,     8.2065,     13.114,    2.114095e-03
  64,     8.1981,     14.700,    3.076588e-03
  65,     8.1877,     14.700,    3.303162e-03
  66,     8.1794,      9.604,    2.287134e-03
  67,     8.1727,     14.700,    2.874792e-03
  68,     8.1572,     14.700,    3.604944e-03
  69,     8.1528,      8.612,    1.681136e-03
  70,     8.1442,      4.184,    1.043917e-03
  71,     8.1407,      7.442,    1.823381e-04
  72,     8.1356,      8.467,    1.588878e-03
  73,     8.1180,     14.700,    4.604159e-03
  74,     8.1010,     14.700,    2.313037e-03
  75,     8.0904,     14.700,    2.624776e-03
  76,     8.0794,     14.700,    3.054900e-03
  77,     8.0700,     14.700,    3.243977e-03
  78,     8.0540,     14.700,    3.844958e-03
  79,     8.0387,     11.600,    1.898963e-03
  80,     8.0293,      8.896,    2.230486e-03
  81,     8.0166,     14.700,    2.516552e-03
  82,     8.0080,     14.700,    3.569484e-03
  83,     8.0008,     14.700,    1.489661e-03
  84,     7.9827,     14.700,    3.568450e-03
  85,     7.9716,     14.700,    4.355299e-03
  86,     7.9460,     14.700,    5.543572e-03
  87,     7.9106,     14.700,    4.718512e-03
  88,     7.8775,     14.700,    3.901675e-03
  89,     7.8651,     14.700,    4.064931e-03
  90,     7.8466,     14.700,    4.724480e-03
  91,     7.8418,      9.449,    2.831394e-03
  92,     7.8344,      4.161,    8.283466e-04
  93,     7.8294,     13.837,    2.407099e-03
  94,     7.8152,     14.700,    2.420834e-03
  95,     7.7952,     14.700,    5.585671e-03
  96,     7.7668,     14.700,    5.020603e-03
  97,     7.7432,     14.700,    4.395502e-03
  98,     7.7135,     14.700,    4.657431e-03
  99,     7.6919,     14.700,    4.544392e-03
 100,     7.6586,     14.700,    5.536103e-03
 101,     7.6371,     14.700,    4.312961e-03
 102,     7.5985,     14.700,    3.365700e-03
 103,     7.5842,     14.700,    3.745939e-03
 104,     7.5740,     14.700,    3.401300e-03
 105,     7.5561,     14.700,    3.506058e-03
 106,     7.5339,     11.832,    2.059213e-02
 107,     7.5244,     12.630,    2.236418e-02
 108,     7.5127,     13.228,    3.492081e-03
 109,     7.5065,     14.700,    2.542739e-03
 110,     7.4966,     14.700,    2.509620e-03
 111,     7.4862,     14.700,    3.025145e-03
 112,     7.4653,     14.700,    4.068974e-03
 113,     7.4525,     14.700,    4.484536e-03
 114,     7.4402,     14.700,    3.128904e-03
 115,     7.4234,     14.700,    5.070887e-03
 116,     7.4112,     14.700,    5.441330e-03
 117,     7.3806,     14.700,    4.624792e-03
 118,     7.3704,     14.700,    4.299470e-03
 119,     7.3584,     14.700,    2.930851e-03
 120,     7.3484,      7.512,    1.540453e-03
 121,     7.3392,     14.700,    2.839617e-03
 122,     7.3307,     14.700,    3.540221e-03
 123,     7.3110,     14.700,    2.598681e-03
 124,     7.3060,      7.664,    1.916099e-03
 125,     7.2915,     14.700,    3.619196e-03
 126,     7.2863,     14.700,    1.071653e-03
 127,     7.2783,     14.700,    3.043882e-03
 128,     7.2659,     14.700,    4.321394e-03
 129,     7.2486,     14.700,    3.806816e-03
 130,     7.2300,     14.700,    2.723178e-03
 131,     7.2152,     14.700,    2.849356e-03
 132,     7.2016,     14.700,    3.086298e-03
 133,     7.1882,     14.700,    3.237153e-03
 134,     7.1767,     14.700,    2.371933e-03
 135,     7.1681,     14.700,    2.454947e-03
 136,     7.1588,     14.700,    2.415077e-03
 137,     7.1469,     14.700,    2.624247e-03
 138,     7.1317,     14.700,    4.110501e-03
 139,     7.1196,     12.305,    2.048429e-03
 140,     7.1080,     12.355,    2.847520e-03
 141,     7.0969,     12.490,    2.190230e-03
 142,     7.0860,     12.049,    5.415977e-03
 143,     7.0781,     12.585,    3.133436e-03
 144,     7.0712,     12.444,    2.749306e-03
 145,     7.0647,      3.065,    4.423273e-04
 146,     7.0585,     14.700,    3.256091e-03
 147,     7.0494,     14.700,    2.807648e-03
 148,     7.0419,      6.788,    2.019085e-03
 149,     7.0375,     10.331,    2.493856e-03
 150,     7.0307,      0.241,    3.260875e-04
 151,     7.0253,     14.627,    2.670251e-03
 152,     7.0167,      2.435,    6.251958e-04
 153,     7.0103,     13.944,    2.350171e-03
 154,     7.0048,     14.700,    3.193139e-03
 155,     6.9916,     14.700,    2.541788e-03
 156,     6.9805,     14.700,    2.209047e-03
 157,     6.9725,     14.700,    3.028488e-03
 158,     6.9585,     14.700,    2.237078e-03
 159,     6.9447,     14.700,    3.110746e-03
 160,     6.9362,      7.345,    1.399279e-03
 161,     6.9251,     14.700,    1.758540e-03
 162,     6.9144,     11.033,    1.449649e-03
 163,     6.9076,     14.697,    1.249796e-03
 164,     6.8996,     12.394,    2.367071e-03
 165,     6.8912,     14.700,    3.260392e-03
 166,     6.8821,     14.700,    2.597930e-03
 167,     6.8690,     14.700,    2.876523e-03
 168,     6.8520,     14.700,    2.331927e-03
 169,     6.8372,     14.700,    2.955772e-03
 170,     6.8201,     14.700,    2.411785e-03
 171,     6.8101,     14.700,    2.238564e-03
 172,     6.7844,     14.700,    4.922833e-03
 173,     6.7632,     14.700,    4.185636e-03
 174,     6.7472,     14.700,    4.758868e-03
 175,     6.7259,     14.700,    4.356425e-03
 176,     6.6857,     14.700,    4.444657e-03
 177,     6.6581,     14.700,    4.117725e-03
 178,     6.6343,     14.700,    4.453958e-03
 179,     6.6158,      3.376,    7.243882e-04
 180,     6.6085,     14.700,    3.974211e-03
 181,     6.5997,     14.700,    2.390020e-03
 182,     6.5898,     14.700,    2.165785e-03
 183,     6.5815,     10.363,    2.161822e-03
 184,     6.5717,     14.700,    3.500441e-03
 185,     6.5546,     14.700,    3.435195e-03
 186,     6.5469,     14.700,    2.280829e-03
 187,     6.5324,     14.700,    2.442975e-03
 188,     6.5237,     14.700,    3.427090e-03
 189,     6.5046,     14.700,    3.437893e-03
 190,     6.4935,     14.700,    4.438508e-03
 191,     6.4839,     14.700,    2.685760e-03
 192,     6.4710,     14.700,    3.384962e-03
 193,     6.4640,     14.700,    2.203553e-03
 194,     6.4518,     14.700,    4.184583e-03
 195,     6.4409,     14.700,    5.321557e-03
 196,     6.4186,     14.700,    4.135132e-03
 197,     6.3966,     14.700,    6.077202e-03
 198,     6.3826,     14.700,    2.700173e-03
 199,     6.3685,     14.700,    5.318484e-03
 200,     6.3480,     14.700,    4.749576e-03
 201,     6.3280,     14.700,    2.605255e-03
 202,     6.3065,     14.700,    2.715266e-03
 203,     6.2908,     14.700,    1.867847e-03
 204,     6.2840,     11.041,    2.121867e-03
 205,     6.2763,     10.534,    3.117302e-03
 206,     6.2688,     14.700,    3.363264e-03
 207,     6.2528,     14.700,    2.268143e-03
 208,     6.2452,     14.700,    2.560072e-03
 209,     6.2330,     14.700,    2.770074e-03
 210,     6.2146,     14.700,    2.700097e-03
 211,     6.2062,     14.700,    1.854660e-03
 212,     6.1896,     14.700,    3.792281e-03
 213,     6.1771,     14.700,    2.251941e-03
 214,     6.1647,     14.700,    3.507290e-03
 215,     6.1577,     11.925,    1.218256e-03
 216,     6.1489,      8.463,    1.692551e-03
 217,     6.1453,     14.700,    3.225447e-03
 218,     6.1357,     14.700,    1.867987e-03
 219,     6.1233,     14.700,    3.599294e-03
 220,     6.1076,     14.700,    3.161161e-03
 221,     6.0951,     14.700,    2.234154e-03
 222,     6.0723,     14.700,    4.151731e-03
 223,     6.0589,     14.700,    2.424762e-03
 224,     6.0517,     14.700,    2.427800e-03
 225,     6.0373,     14.700,    2.737681e-03
 226,     6.0282,     14.700,    2.716465e-03
 227,     6.0216,      7.934,    1.417535e-03
 228,     6.0114,     12.705,    2.470485e-03
 229,     5.9967,     14.700,    3.402589e-03
 230,     5.9848,     14.700,    1.883555e-03
 231,     5.9763,     11.538,    1.803009e-03
 232,     5.9685,     14.700,    2.111788e-03
 233,     5.9570,     14.700,    2.193498e-03
 234,     5.9503,     14.700,    3.417346e-03
 235,     5.9322,     14.700,    4.729528e-03
 236,     5.9033,     14.700,    4.921634e-03
 237,     5.8910,     14.700,    3.058321e-03
 238,     5.8762,     14.700,    3.148598e-03
 239,     5.8663,     14.700,    4.331523e-03
 240,     5.8503,     10.446,    1.630224e-03
 241,     5.8387,     14.700,    2.966607e-03
 242,     5.8347,      4.317,    7.476344e-04
 243,     5.8289,     14.665,    2.516512e-03
 244,     5.8172,     14.700,    2.061969e-03
 245,     5.7981,     11.817,    2.068168e-02
 246,     5.7886,     11.827,    2.102497e-02
 247,     5.7798,      7.069,    1.559321e-03
 248,     5.7735,     14.700,    2.175591e-03
 249,     5.7610,     14.700,    1.822077e-03
 250,     5.7457,     14.700,    4.577858e-03
 251,     5.7345,     14.700,    2.809645e-03
 252,     5.7253,     14.700,    3.059026e-03
 253,     5.7135,     14.700,    2.903516e-03
 254,     5.7078,     14.700,    1.563156e-03
 255,     5.6941,     14.700,    2.645572e-03
 256,     5.6848,     14.700,    3.330841e-03
 257,     5.6755,     14.700,    3.374754e-03
 258,     5.6594,     14.700,    3.795466e-03
 259,     5.6425,     14.700,    2.774525e-03
 260,     5.6281,     14.700,    3.242492e-03
 261,     5.6176,     14.700,    3.100150e-03
 262,     5.6070,     14.700,    2.704127e-03
 263,     5.6000,     14.700,    3.117034e-03
 264,     5.5875,     14.700,    2.967887e-03
 265,     5.5789,     14.323,    2.018814e-03
 266,     5.5700,     14.700,    2.225055e-03
 267,     5.5596,     14.700,    3.858659e-03
 268,     5.5477,     14.700,    2.572689e-03
 269,     5.5338,     14.700,    4.227233e-03
 270,     5.5227,     14.700,    3.532783e-03
 271,     5.5142,     14.700,    3.331150e-03
 272,     5.5032,     14.700,    4.786741e-03
 273,     5.4893,     14.700,    3.556883e-03
 274,     5.4843,     14.700,    3.618486e-03
 275,     5.4616,     14.700,    3.280627e-03
 276,     5.4487,     14.700,    4.000404e-03
 277,     5.4282,     14.700,    3.411006e-03
 278,     5.4170,     14.700,    2.941704e-03
 279,     5.3978,     14.700,    3.887754e-03
 280,     5.3743,     14.700,    4.203479e-03
 281,     5.3544,     14.700,    4.148712e-03
 282,     5.3370,     14.700,    2.381356e-03
 283,     5.3199,     14.700,    3.886822e-03
 284,     5.3094,     14.700,    3.082905e-03
 285,     5.2986,     14.700,    2.670843e-03
 286,     5.2901,     14.700,    3.679911e-03
 287,     5.2652,     14.700,    2.858393e-03
 288,     5.2530,     14.700,    3.113046e-03
 289,     5.2363,     14.700,    2.282928e-03
 290,     5.2273,     14.700,    3.085251e-03
 291,     5.2151,     14.700,    3.326801e-03
 292,     5.2068,     14.700,    2.493586e-03
 293,     5.1863,     14.700,    5.329078e-03
 294,     5.1570,     14.700,    4.281601e-03
 295,     5.1381,     14.700,    4.658064e-03
 296,     5.1149,     14.700,    3.972226e-03
 297,     5.1014,     14.700,    5.115572e-03
 298,     5.0682,     14.700,    4.251292e-03
 299,     5.0509,     14.700,    3.078409e-03
 300,     5.0374,     14.700,    3.561242e-03
 301,     5.0211,     14.700,    2.921312e-03
 302,     5.0093,     14.700,    2.237848e-03
 303,     4.9990,     14.700,    2.829188e-03
 304,     4.9916,     14.700,    2.633303e-03
 305,     4.9767,     14.700,    4.517585e-03
 306,     4.9625,     14.700,    3.595267e-03
 307,     4.9416,     14.700,    2.965134e-03
 308,     4.9283,     14.700,    4.388354e-03
 309,     4.9127,     14.700,    3.597306e-03
 310,     4.9004,     14.700,    3.352979e-03
 311,     4.8873,     14.700,    1.346629e-01
 312,     4.8699,     14.700,    1.258287e-01
 313,     4.8548,     14.700,    1.248103e-01
 314,     4.8371,     14.700,    1.328095e-01
 315,     4.8144,     14.700,    1.356396e-01
 316,     4.7948,     14.700,    1.325497e-01
 317,     4.7697,     14.700,    1.353635e-01
 318,     4.7555,     14.700,    1.291489e-01
 319,     4.7403,     14.700,    1.231435e-01
 320,     4.7251,     14.700,    1.218866e-01
 321,     4.7097,     14.700,    1.226762e-01
 322,     4.6947,     14.700,    1.244875e-01
 323,     4.6797,     14.700,    1.282010e-01
 324,     4.6748,     14.700,    4.025402e-03
 325,     4.6594,     14.700,    2.647077e-03
 326,     4.6459,     14.700,    3.502664e-03
 327,     4.6358,     14.700,    2.663394e-03
 328,     4.6211,     14.700,    2.631429e-03
 329,     4.6102,     14.700,    2.398072e-03
 330,     4.5981,     14.700,    4.543698e-03
 331,     4.5971,     14.700,    5.203159e-03
 332,     4.5580,     14.700,    6.280248e-03
 333,     4.5355,     14.700,    6.808425e-03
 334,     4.5207,     14.700,    6.514876e-03
 335,     4.5051,     14.700,    6.106628e-03
 336,     4.4942,     14.700,    7.211046e-03
 337,     4.4782,     14.700,    7.893503e-03
 338,     4.4519,     14.700,    4.134207e-03
 339,     4.4273,     14.700,    3.208654e-03
 340,     4.3875,     14.700,    1.286522e-02
 341,     4.3826,     14.700,    1.233642e-02
 342,     4.3742,     14.700,    1.208350e-02
 343,     4.3695,     14.700,    1.313339e-02
 344,     4.2965,     11.518,    5.320832e-01
 345,     4.2927,     13.574,    7.616855e-01
 346,     4.2839,     12.351,    5.918810e-01
 347,     4.2801,     14.649,    8.114372e-01
 348,     4.2312,     14.700,    3.244807e-03
 349,     4.2230,     14.700,    2.690454e-03
 350,     4.2018,     11.597,    7.152752e-03
 351,     4.1977,     13.759,    5.878384e-03
 352,     4.1893,     12.774,    9.085922e-03
 353,     4.1856,     12.421,    5.029071e-03
 354,     4.1754,     12.296,    7.245072e-03
 355,     4.1678,      9.966,    7.194603e-03
 356,     4.1638,     10.088,    5.082243e-03
 357,     4.1568,     11.648,    8.241939e-03
 358,     4.1430,     14.700,    3.571615e-03
 359,     4.1246,     14.700,    1.353949e-03
 360,     4.1046,     14.700,    3.657684e-03
 361,     4.0628,      9.346,    3.563799e-02
 362,     4.0597,     10.510,    4.595188e-02
 363,     4.0574,     10.853,    6.438624e-02
 364,     4.0551,     12.608,    1.184271e-01
 365,     4.0509,     14.152,    1.769935e-01
 366,     4.0475,     13.041,    8.597575e-02
 367,     4.0438,     12.086,    5.316595e-02
 368,     4.0186,     14.700,    5.211703e-03
 369,     4.0095,     14.700,    1.753862e-03
 370,     4.0000,     14.700,    3.361460e-03
 371,     3.9798,     14.700,    3.017233e-03
 372,     3.9716,     14.700,    4.456857e-03
 373,     3.9541,     14.700,    1.829926e-02
 374,     3.9452,     14.700,    3.589710e-03
 375,     3.9284,     14.700,    3.648170e-03
 376,     3.8926,     14.700,    3.692890e-03
 377,     3.8821,     14.700,    3.553709e-03
 378,     3.8693,      7.884,    1.149142e-03
 379,     3.8618,     11.705,    8.887310e-03
 380,     3.8552,     14.700,    1.697546e-03
 381,     3.8467,     10.837,    5.093877e-03
 382,     3.8402,     10.082,    1.577396e-02
 383,     3.8247,     12.726,    1.325168e-02
 384,     3.8205,      2.284,    5.756289e-04
 385,     3.8128,     12.157,    3.155219e-03
 386,     3.8075,     14.700,    4.116382e-03
 387,     3.7995,     11.009,    1.740913e-02
 388,     3.7867,      7.779,    6.277360e-03
 389,     3.7779,      9.513,    7.829549e-03
 390,     3.7735,      8.320,    1.054297e-03
 391,     3.7652,     14.700,    7.855034e-03
 392,     3.7536,     14.700,    3.015636e-03
 393,     3.7347,     14.700,    2.811402e-03
 394,     3.7291,     14.700,    2.564129e-03
 395,     3.7200,     14.700,    6.625214e-03
 396,     3.7126,     12.474,    4.792203e-03
 397,     3.7075,     11.941,    3.934596e-03
 398,     3.7028,     14.700,    5.857051e-03
 399,     3.6950,     14.700,    2.048173e-03
 400,     3.6885,     12.605,    2.543718e-03
 401,     3.6777,     14.700,    1.848617e-03
 402,     3.6582,     10.568,    2.419402e-03
 403,     3.6497,     14.700,    4.131343e-03
 404,     3.6444,     12.695,    4.805335e-03
 405,     3.6355,     10.471,    4.138059e-03
 406,     3.6301,     11.910,    7.391780e-03
 407,     3.6084,     14.700,    2.043146e-03
 408,     3.5982,     12.633,    4.413266e-03
 409,     3.5897,     14.700,    3.566917e-03
 410,     3.5839,      4.225,    7.224251e-04
 411,     3.5736,      0.000,    1.777063e-04
 412,     3.5695,      6.108,    6.448632e-04
 413,     3.5661,      4.000,    1.340916e-03
 414,     3.5607,     10.718,    4.193261e-03
 415,     3.5530,     13.329,    5.514853e-03
 416,     3.5458,     11.041,    5.696531e-03
 417,     3.5378,     12.558,    6.479842e-03
 418,     3.5174,      9.425,    9.947103e-02
 419,     3.5158,      7.191,    3.985326e-02
 420,     3.5134,      7.907,    3.813767e-02
 421,     3.5116,      7.780,    5.539395e-02
 422,     3.5095,     13.855,    2.151391e-01
 423,     3.5043,     11.837,    1.611641e-01
 424,     3.4809,     14.700,    4.463556e-03
 425,     3.4752,     14.700,    3.280433e-03
 426,     3.4679,     14.700,    2.616792e-03
 427,     3.4546,     14.700,    2.617925e-03
 428,     3.4399,     14.700,    2.861770e-03
 429,     3.4303,     14.700,    2.025631e-03
 430,     3.4234,      8.383,    1.574523e-03
 431,     3.4170,     14.700,    3.698237e-03
 432,     3.4010,      5.711,    1.053350e-03
 433,     3.3864,     14.700,    2.137709e-03
