index,   freq_ppm,   decay_hz, amplitude
   1,     9.0438,     14.700,    4.424758e-03
   2,     9.0351,     13.602,    3.483421e-03
   3,     9.0260,     14.700,    3.596777e-03
   4,     9.0147,     14.700,    3.333671e-03
   5,     9.0025,     14.700,    4.530678e-03
   6,     8.9937,     14.700,    3.712581e-03
   7,     8.9767,     14.700,    5.107841e-03
   8,     8.9648,     14.700,    4.591986e-03
   9,     8.9505,     14.700,    5.192748e-03
  10,     8.9415,     14.700,    3.965087e-03
  11,     8.9303,     14.700,    5.594487e-03
  12,     8.9199,     14.700,    4.786125e-03
  13,     8.9119,     14.700,    6.120962e-03
  14,     8.8877,     14.700,    5.753933e-03
  15,     8.8646,     14.700,    5.802614e-03
  16,     8.8518,     14.700,    5.696462e-03
  17,     8.8342,     14.700,    4.638171e-03
  18,     8.8222,     14.700,    4.821643e-03
  19,     8.8069,     14.700,    6.607759e-03
  20,     8.7877,     14.700,    6.264510e-03
  21,     8.7549,     14.700,    6.250336e-03
  22,     8.7206,     14.700,    6.502512e-03
  23,     8.6261,     14.700,    6.340721e-03
  24,     8.5885,     14.700,    5.325698e-03
  25,     8.5657,     14.700,    6.708222e-03
  26,     8.5538,     14.700,    5.908487e-03
  27,     8.5371,     14.700,    5.266740e-03
  28,     8.5253,     14.700,    6.112024e-03
  29,     8.5104,     14.700,    6.444197e-03
  30,     8.4967,     14.700,    5.506195e-03
  31,     8.4834,     14.700,    4.745316e-03
  32,     8.4456,      9.858,    1.345225e-01
  33,     8.4374,     14.700,    1.323945e-02
  34,     8.4228,     14.700,    9.221618e-03
  35,     8.3882,     14.700,    8.321515e-03
  36,     8.3664,     14.700,    8.611775e-03
  37,     8.3375,     14.700,    9.529275e-03
  38,     8.2898,     14.700,    9.894783e-03
  39,     8.2510,     14.700,    4.790257e-03
  40,     8.2379,     14.700,    4.876603e-03
  41,     8.2191,     14.700,    5.041786e-03
  42,     8.1963,     14.700,    4.504637e-03
  43,     8.1812,     14.700,    4.891456e-03
  44,     8.1685,     14.700,    5.686193e-03
  45,     8.1513,     14.700,    6.688700e-03
  46,     8.1355,     14.700,    5.484440e-03
  47,     8.1260,     14.700,    6.267257e-03
  48,     8.1078,     14.700,    5.516211e-03
  49,     8.0975,     14.700,    4.578110e-03
  50,     8.0885,     14.700,    5.014653e-03
  51,     8.0785,     14.700,    6.279554e-03
  52,     8.0669,     14.700,    4.204244e-03
  53,     8.0558,     14.700,    4.439876e-03
  54,     8.0442,     14.700,    8.602817e-03
  55,     8.0232,     14.700,    6.596657e-03
  56,     8.0096,     14.700,    6.901822e-03
  57,     7.9863,     14.700,    5.866131e-03
  58,     7.9596,     14.700,    7.813190e-03
  59,     7.9287,     14.700,    7.340800e-03
  60,     7.9028,     14.700,    6.548096e-03
  61,     7.8703,     14.700,    6.140979e-03
  62,     7.8568,     14.700,    5.601092e-03
  63,     7.8422,     14.700,    5.208443e-03
  64,     7.8312,     14.700,    7.235380e-03
  65,     7.8073,     14.700,    5.952199e-03
  66,     7.7833,     14.700,    5.999692e-03
  67,     7.7571,     14.700,    4.808120e-03
  68,     7.7369,     14.700,    6.152751e-03
  69,     7.7245,     14.700,    6.092573e-03
  70,     7.7075,     14.700,    5.137362e-03
  71,     7.6816,     14.700,    6.417801e-03
  72,     7.6620,     14.700,    5.811834e-03
  73,     7.6486,     14.700,    4.385957e-03
  74,     7.6380,     14.700,    4.787777e-03
  75,     7.6235,     14.700,    3.991266e-03
  76,     7.5944,     14.700,    4.843569e-03
  77,     7.5799,     14.700,    4.495649e-03
  78,     7.5602,     14.700,    5.070547e-03
  79,     7.5414,     14.700,    4.441120e-03
  80,     7.5042,     14.700,    3.538632e-03
  81,     7.4908,     14.700,    3.791703e-03
  82,     7.4738,     14.700,    5.596720e-03
  83,     7.4579,     14.700,    5.802500e-03
  84,     7.4398,     14.700,    4.266375e-03
  85,     7.4241,     14.700,    4.653940e-03
  86,     7.4097,     14.700,    5.259768e-03
  87,     7.3969,     14.700,    4.613948e-03
  88,     7.3893,     14.700,    5.712887e-03
  89,     7.3786,     14.700,    5.745992e-03
  90,     7.3661,     14.700,    5.816277e-03
  91,     7.3493,     14.700,    4.631337e-03
  92,     7.3390,     14.700,    4.828653e-03
  93,     7.3229,     14.700,    5.022148e-03
  94,     7.3130,     14.700,    4.474062e-03
  95,     7.3079,      9.511,    2.863987e-03
  96,     7.3001,      8.916,    3.735648e-03
  97,     7.2904,     14.700,    5.441409e-03
  98,     7.2767,     14.700,    6.239365e-03
  99,     7.2661,     14.700,    3.781040e-03
 100,     7.2564,      5.175,    1.246909e-03
 101,     7.2495,     11.605,    3.280657e-03
 102,     7.2419,      8.163,    2.763660e-03
 103,     7.2360,      3.732,    1.794211e-03
 104,     7.2309,      8.448,    1.000889e-03
 105,     7.2266,      4.623,    1.163074e-03
 106,     7.2211,      6.823,    2.297190e-03
 107,     7.2152,      9.425,    2.446775e-03
 108,     7.2035,     14.700,    5.093592e-03
 109,     7.1913,     14.700,    3.599027e-03
 110,     7.1863,     14.700,    6.244792e-03
 111,     7.1793,     12.103,    4.193046e-03
 112,     7.1703,     14.700,    4.522858e-03
 113,     7.1546,     14.700,    4.977523e-03
 114,     7.1344,     14.700,    5.732013e-03
 115,     7.1146,     14.700,    5.490649e-03
 116,     7.0979,     14.700,    4.183895e-03
 117,     7.0797,     14.700,    8.209682e-03
 118,     7.0643,     14.700,    5.459212e-03
 119,     7.0566,     12.169,    2.894651e-03
 120,     7.0487,     14.700,    4.334169e-03
 121,     7.0379,     14.700,    3.612874e-03
 122,     7.0307,      2.730,    1.352858e-03
 123,     7.0239,     14.700,    4.696497e-03
 124,     7.0102,     14.700,    7.024160e-03
 125,     6.9957,     14.700,    6.301347e-03
 126,     6.9826,     14.700,    6.008747e-03
 127,     6.9583,     14.700,    5.463398e-03
 128,     6.9474,     14.700,    7.834102e-03
 129,     6.9301,     14.700,    7.007091e-03
 130,     6.9114,     14.700,    6.493861e-03
 131,     6.8985,     13.907,    4.642680e-03
 132,     6.8879,     14.700,    5.608260e-03
 133,     6.8811,     14.700,    2.568002e-03
 134,     6.8700,     14.700,    2.448215e-03
 135,     6.8647,      5.569,    1.589645e-03
 136,     6.8555,     14.700,    6.018021e-03
 137,     6.8394,     14.700,    5.524172e-03
 138,     6.8260,     14.700,    6.873237e-03
 139,     6.8078,     14.700,    5.776562e-03
 140,     6.7969,      6.072,    3.003918e-03
 141,     6.7868,     14.700,    5.404744e-03
 142,     6.7633,     14.700,    5.907608e-03
 143,     6.7522,     14.700,    6.465171e-03
 144,     6.7427,     14.700,    3.740732e-03
 145,     6.7289,     14.700,    4.100000e-03
 146,     6.7198,     14.700,    4.985069e-03
 147,     6.7015,     14.700,    5.870554e-03
 148,     6.6807,     14.700,    4.754940e-03
 149,     6.6589,     14.700,    5.669322e-03
 150,     6.6413,     14.700,    4.322833e-03
 151,     6.6176,     14.700,    5.522809e-03
 152,     6.5919,     14.700,    4.063604e-03
 153,     6.5707,     14.700,    4.491117e-03
 154,     6.5567,     11.046,    2.947850e-03
 155,     6.5503,      0.000,    2.433123e-04
 156,     6.5468,      9.581,    2.763076e-03
 157,     6.5405,      8.048,    2.562908e-03
 158,     6.5309,      8.006,    2.095341e-03
 159,     6.5275,      0.000,    2.348597e-04
 160,     6.5161,     14.700,    4.800981e-03
 161,     6.5022,     14.700,    5.796058e-03
 162,     6.4915,     14.700,    3.946853e-03
 163,     6.4795,     14.700,    5.160363e-03
 164,     6.4653,      9.749,    4.220212e-03
 165,     6.4507,     14.700,    5.873755e-03
 166,     6.4228,     14.700,    6.507081e-03
 167,     6.4071,     14.700,    7.229242e-03
 168,     6.3938,     14.700,    5.083504e-03
 169,     6.3801,     14.700,    7.475447e-03
 170,     6.3619,     14.700,    7.204134e-03
 171,     6.3435,     14.700,    5.104184e-03
 172,     6.3344,     14.700,    2.950877e-03
 173,     6.3256,     13.721,    4.346170e-03
 174,     6.3178,     14.465,    2.675275e-03
 175,     6.3072,      8.718,    3.065686e-03
 176,     6.2979,      9.733,    3.207586e-03
 177,     6.2793,     14.700,    8.826018e-03
 178,     6.2590,     14.700,    7.270090e-03
 179,     6.2478,     14.700,    5.674455e-03
 180,     6.2354,     14.700,    7.622757e-03
 181,     6.2219,     14.700,    7.230908e-03
 182,     6.2055,     14.700,    7.109035e-03
 183,     6.1885,     14.700,    7.835250e-03
 184,     6.1751,     14.700,    8.636287e-03
 185,     6.1599,     14.700,    6.342250e-03
 186,     6.1420,     14.700,    8.739550e-03
 187,     6.1254,     14.700,    8.390049e-03
 188,     6.1066,     14.700,    6.886404e-03
 189,     6.0885,     14.700,    7.890629e-03
 190,     6.0773,     14.056,    3.132385e-03
 191,     6.0708,      8.360,    3.433350e-03
 192,     6.0629,      5.122,    1.829248e-03
 193,     6.0533,      9.866,    3.118475e-03
 194,     6.0474,      1.332,    5.022441e-04
 195,     6.0411,     14.700,    5.074181e-03
 196,     6.0222,     14.700,    4.462173e-03
 197,     6.0085,     14.700,    3.408527e-03
 198,     5.9984,     14.700,    3.577456e-03
 199,     5.9836,     14.700,    4.616336e-03
 200,     5.9666,     14.700,    4.646286e-03
 201,     5.9563,     14.700,    3.025073e-03
 202,     5.9427,     14.700,    4.264536e-03
 203,     5.9319,     14.700,    3.288034e-03
 204,     5.9162,     14.700,    4.524196e-03
 205,     5.9058,      5.578,    1.829397e-03
 206,     5.8977,     14.700,    3.842149e-03
 207,     5.8855,     14.700,    2.972286e-03
 208,     5.8679,     14.700,    3.734935e-03
 209,     5.8597,     14.700,    5.323507e-03
 210,     5.8528,      2.921,    1.148782e-03
 211,     5.8457,     14.700,    3.763835e-03
 212,     5.8385,      4.417,    1.460831e-03
 213,     5.8297,     14.054,    3.530689e-03
 214,     5.8240,     11.411,    4.134740e-03
 215,     5.8149,     14.700,    3.989626e-03
 216,     5.8040,      8.147,    3.697186e-03
 217,     5.7936,     10.870,    3.136364e-03
 218,     5.7865,     14.700,    4.269231e-03
 219,     5.7758,     14.700,    5.114136e-03
 220,     5.7592,     14.700,    5.582839e-03
 221,     5.7516,     14.700,    4.693445e-03
 222,     5.7374,     14.700,    6.202641e-03
 223,     5.7180,     14.700,    7.448247e-03
 224,     5.6878,     14.700,    6.356108e-03
 225,     5.6674,     14.700,    5.274083e-03
 226,     5.6550,     14.700,    4.898381e-03
 227,     5.6447,     14.700,    5.801364e-03
 228,     5.6198,     14.700,    6.483519e-03
 229,     5.6139,     14.700,    6.415197e-03
 230,     5.5998,     14.700,    6.640881e-03
 231,     5.5866,     14.700,    4.757179e-03
 232,     5.5746,     14.700,    5.386136e-03
 233,     5.5597,     14.700,    6.661669e-03
 234,     5.5423,     14.700,    4.894783e-03
 235,     5.5311,     14.700,    4.251102e-03
 236,     5.5111,     14.700,    8.513915e-03
 237,     5.4692,     14.700,    7.860844e-03
 238,     5.4438,     14.700,    7.565123e-03
 239,     5.4155,     14.700,    8.910139e-03
 240,     5.3904,     14.700,    8.939327e-03
 241,     5.3674,     14.700,    8.363163e-03
 242,     5.3435,     14.700,    9.292342e-03
 243,     5.3304,     14.700,    5.280982e-03
 244,     5.3175,     14.700,    6.063554e-03
 245,     5.2984,     14.700,    5.466839e-03
 246,     5.2863,     14.700,    4.756855e-03
 247,     5.2725,     14.700,    4.506765e-03
 248,     5.2606,     14.700,    4.776298e-03
 249,     5.2489,     14.700,    4.849535e-03
 250,     5.2428,     14.700,    7.199137e-03
 251,     5.2180,     14.700,    7.537056e-03
 252,     5.1876,     14.700,    7.160781e-03
 253,     5.1710,     14.700,    7.015412e-03
 254,     5.1464,     14.700,    6.601877e-03
 255,     5.1160,     14.700,    7.476267e-03
 256,     5.0637,     14.700,    6.507626e-03
 257,     5.0553,     14.700,    5.496788e-03
 258,     5.0429,     14.700,    5.529934e-03
 259,     5.0299,     14.700,    5.548339e-03
 260,     5.0181,     14.700,    5.391143e-03
 261,     4.9984,     14.700,    5.450614e-03
 262,     4.9830,     14.700,    5.738539e-03
 263,     4.9649,     14.700,    4.706427e-03
 264,     4.9435,     14.700,    8.954488e-03
 265,     4.9233,     14.700,    8.127280e-03
 266,     4.9047,     14.700,    7.093809e-03
 267,     4.8857,     14.700,    7.986645e-03
 268,     4.8657,     14.700,    6.620940e-03
 269,     4.8497,     14.700,    6.131194e-03
 270,     4.8341,     14.700,    5.700167e-03
 271,     4.8276,     14.700,    2.688465e-02
 272,     4.8197,     14.700,    2.410769e-02
 273,     4.8124,     14.700,    2.242306e-02
 274,     4.8053,     14.700,    2.492225e-02
 275,     4.7983,     14.700,    2.714719e-02
 276,     4.7787,     14.700,    4.008689e-02
 277,     4.7599,     14.700,    5.182349e-02
 278,     4.7455,     14.700,    4.542716e-02
 279,     4.7294,     14.700,    4.554940e-02
 280,     4.7138,     14.700,    4.065959e-02
 281,     4.7004,     14.700,    4.456041e-02
 282,     4.6910,     14.700,    6.814756e-03
 283,     4.6335,     14.700,    6.918648e-03
 284,     4.6189,     14.700,    6.650062e-03
 285,     4.6008,     14.700,    5.629474e-03
 286,     4.5727,     14.700,    7.063401e-03
 287,     4.5611,     14.700,    5.297739e-03
 288,     4.5463,     14.700,    6.865886e-03
 289,     4.5230,     14.700,    8.043985e-03
 290,     4.4996,     14.700,    8.974049e-03
 291,     4.4857,     14.700,    8.321293e-03
 292,     4.4540,     14.700,    8.741583e-03
 293,     4.4221,     14.700,    9.523845e-03
 294,     4.3958,     14.700,    1.020095e-02
 295,     4.3724,     14.700,    1.009591e-02
 296,     4.3453,     14.700,    5.010119e-03
 297,     4.3315,     14.700,    5.005859e-03
 298,     4.3130,     14.700,    7.210002e-03
 299,     4.2964,     14.700,    5.778496e-03
 300,     4.2776,     14.700,    5.069008e-03
 301,     4.2610,     14.700,    6.727953e-03
 302,     4.2418,     14.700,    3.629311e-03
 303,     4.2285,     14.700,    5.465074e-03
 304,     4.2112,     14.700,    5.821432e-03
 305,     4.2002,     14.700,    4.675958e-03
 306,     4.1878,     14.700,    5.431337e-03
 307,     4.1789,     14.700,    6.422332e-03
 308,     4.1653,     14.700,    6.229101e-03
 309,     4.1396,     14.700,    1.038791e-02
 310,     4.1354,     12.899,    2.835227e-02
 311,     4.1311,     14.700,    3.279762e-02
 312,     4.1267,     14.700,    1.152909e-02
 313,     4.1076,     14.700,    6.402446e-02
 314,     4.1029,     14.330,    8.041520e-02
 315,     4.0965,     14.700,    1.007483e-02
 316,     4.0859,     14.700,    3.722875e-03
 317,     4.0577,     14.700,    6.541827e-03
 318,     4.0495,     14.700,    1.256333e-02
 319,     4.0260,     11.531,    8.256327e-02
 320,     4.0241,     11.929,    6.875998e-02
 321,     4.0182,     14.700,    2.026843e-02
 322,     4.0107,     13.733,    5.037155e-02
 323,     4.0087,     14.294,    1.460461e-01
 324,     3.9912,     14.043,    7.091048e-02
 325,     3.9881,     13.724,    9.704756e-02
 326,     3.9847,     14.071,    9.760620e-02
 327,     3.9449,     12.504,    3.088136e-03
 328,     3.9381,     10.871,    5.091645e-03
 329,     3.9298,     13.339,    5.351294e-03
 330,     3.9182,     10.690,    6.637242e-02
 331,     3.8957,      9.107,    3.620869e-02
 332,     3.8927,      8.388,    1.570248e-02
 333,     3.8909,      8.439,    2.425922e-02
 334,     3.8880,      9.631,    7.614960e-03
 335,     3.8833,      9.884,    4.514081e-02
 336,     3.8790,     13.261,    6.607687e-02
 337,     3.8555,     10.733,    2.356317e-02
 338,     3.8480,     13.672,    5.273855e-02
 339,     3.8399,      6.436,    1.388286e-02
 340,     3.8252,     14.700,    1.272066e-02
 341,     3.8189,     14.700,    2.206956e-02
 342,     3.8142,     13.861,    1.487845e-02
 343,     3.7992,     14.700,    3.589991e-02
 344,     3.7952,     12.328,    1.052212e-01
 345,     3.7832,     10.663,    6.222489e-02
 346,     3.7807,     14.700,    5.680133e-02
 347,     3.7410,     14.700,    4.084465e-03
 348,     3.7103,     11.046,    1.173240e-01
 349,     3.7071,     11.048,    5.344007e-02
 350,     3.7046,     13.728,    1.032304e-01
 351,     3.6955,     12.552,    1.864336e-01
 352,     3.6910,     12.457,    8.161779e-02
 353,     3.6882,     12.716,    6.709684e-02
 354,     3.6773,      8.374,    1.973211e-02
 355,     3.6700,      4.844,    5.614928e-03
 356,     3.6622,     11.553,    2.126970e-02
 357,     3.6550,     14.700,    2.418254e-02
 358,     3.6467,     10.369,    2.482564e-02
 359,     3.6446,      5.628,    8.857173e-03
 360,     3.6428,      4.245,    6.157964e-03
 361,     3.6052,      6.961,    1.163963e-01
 362,     3.6035,      3.102,    1.887763e-01
 363,     3.6021,      2.531,    2.413168e-01
 364,     3.6006,      4.794,    2.098955e-01
 365,     3.5969,     11.544,    1.285520e+00
 366,     3.5894,     14.700,    2.068696e-02
 367,     3.5797,     14.700,    9.620819e-02
 368,     3.5589,     11.783,    1.500478e-01
 369,     3.5494,     12.851,    6.814206e-02
 370,     3.5444,     13.692,    1.672861e-01
 371,     3.5369,     13.335,    3.320304e-02
 372,     3.5337,     14.700,    5.927207e-02
 373,     3.5245,     14.700,    9.469496e-03
 374,     3.5098,     14.700,    1.684006e-02
 375,     3.5038,     14.700,    1.363593e-02
 376,     3.4575,     12.311,    3.765225e-03
 377,     3.4505,     14.700,    6.687959e-03
 378,     3.4396,      6.011,    2.874641e-03
 379,     3.4243,     14.052,    5.540765e-03
 380,     3.4180,      7.489,    1.429681e-03
 381,     3.4113,     14.700,    4.834389e-03
 382,     3.3983,     14.700,    5.507645e-03
 383,     3.3832,     14.700,    5.647063e-03
 384,     3.3709,     14.700,    5.784938e-03
 385,     3.3637,     14.700,    3.858077e-03
 386,     3.3437,     14.700,    1.283525e-02
 387,     3.3305,     14.700,    6.641714e-03
 388,     3.3176,     14.700,    5.377391e-03
 389,     3.3043,     14.700,    4.465010e-03
 390,     3.2815,     14.700,    4.162696e-03
 391,     3.2723,     14.700,    5.111915e-03
 392,     3.2638,     14.700,    3.609241e-03
 393,     3.2477,     13.821,    1.551188e-02
 394,     3.2421,     14.700,    1.359635e-02
 395,     3.2371,     14.700,    1.492996e-02
 396,     3.2334,     11.006,    6.940984e-03
 397,     3.2293,      6.782,    1.698706e-03
 398,     3.2217,      5.768,    1.625652e-03
 399,     3.2056,     14.700,    8.865062e-03
 400,     3.1972,     14.700,    1.123669e-02
 401,     3.1781,     14.700,    9.373283e-03
 402,     3.1667,     14.700,    6.453024e-03
 403,     3.1528,     14.700,    6.583758e-03
 404,     3.1332,     14.700,    6.190098e-03
 405,     3.1274,     14.700,    5.768630e-03
 406,     3.1186,     14.700,    5.141679e-03
 407,     3.1091,     14.700,    5.178236e-03
 408,     3.0977,     14.700,    5.757353e-03
 409,     3.0862,     14.700,    4.588311e-03
 410,     3.0781,     14.700,    4.497967e-03
 411,     3.0646,     14.700,    3.814867e-03
 412,     3.0541,      4.678,    2.572905e-03
 413,     3.0485,     14.700,    1.852548e-03
 414,     3.0439,      4.678,    2.122042e-03
 415,     3.0345,      3.742,    1.752719e-03
 416,     3.0257,     11.036,    8.327765e-02
 417,     3.0187,      3.083,    1.027279e-03
 418,     3.0142,      6.822,    2.783514e-03
 419,     3.0036,     14.700,    5.117207e-03
 420,     2.9950,     14.700,    9.418923e-03
 421,     2.9688,     14.700,    7.504347e-03
 422,     2.9360,     14.700,    6.577010e-03
 423,     2.9185,     14.700,    5.756035e-03
 424,     2.9069,     14.700,    7.595996e-03
 425,     2.8875,     14.700,    8.858065e-03
 426,     2.8634,     14.700,    7.410344e-03
 427,     2.8491,     14.700,    5.695589e-03
 428,     2.8401,      7.909,    2.871072e-03
 429,     2.8298,     14.700,    5.002679e-03
 430,     2.8199,     14.700,    7.370959e-03
 431,     2.8065,     14.700,    7.459716e-03
 432,     2.7944,     14.700,    4.624532e-03
 433,     2.7862,     14.700,    4.982771e-03
