index,   freq_ppm,   decay_hz, amplitude
   1,     9.0786,     14.700,    4.637005e-03
   2,     9.0525,     14.700,    2.858941e-03
   3,     9.0313,     14.700,    3.252548e-03
   4,     9.0064,     14.700,    4.480065e-03
   5,     8.9873,     14.700,    4.162434e-03
   6,     8.9661,     14.700,    3.479218e-03
   7,     8.9531,     14.700,    4.472480e-03
   8,     8.9428,     14.700,    5.127484e-03
   9,     8.9327,     14.700,    3.771192e-03
  10,     8.9123,     14.700,    3.888505e-03
  11,     8.8921,     14.700,    3.887598e-03
  12,     8.8677,     14.700,    3.414867e-03
  13,     8.8369,     14.700,    4.297372e-03
  14,     8.8253,     14.700,    2.774455e-03
  15,     8.8159,     12.930,    2.696864e-03
  16,     8.8031,     13.909,    3.167980e-03
  17,     8.7902,     14.035,    3.186321e-03
  18,     8.7735,     13.846,    4.396489e-03
  19,     8.7653,     13.305,    2.498226e-03
  20,     8.7587,     13.316,    2.721142e-03
  21,     8.7445,     14.700,    6.387683e-03
  22,     8.7324,     14.700,    6.723100e-03
  23,     8.7199,     14.700,    5.724864e-03
  24,     8.6999,     14.700,    6.372741e-03
  25,     8.6829,     14.700,    6.977498e-03
  26,     8.6381,     14.700,    6.342300e-03
  27,     8.6186,     14.700,    7.141698e-03
  28,     8.6028,      4.148,    1.520673e-03
  29,     8.5952,     14.700,    5.124319e-03
  30,     8.5845,     14.700,    5.246856e-03
  31,     8.5759,     14.700,    3.138068e-03
  32,     8.5645,     14.700,    8.151394e-03
  33,     8.5475,     14.700,    5.516191e-03
  34,     8.5209,     14.700,    5.386400e-03
  35,     8.4944,     14.700,    5.224234e-03
  36,     8.4799,     14.700,    3.762983e-03
  37,     8.4671,     14.700,    4.663470e-03
  38,     8.4463,      7.173,    1.551545e-01
  39,     8.4449,      9.493,    2.056057e-01
  40,     8.4391,     14.700,    2.589846e-02
  41,     8.4300,     14.700,    1.556930e-02
  42,     8.4164,     14.700,    1.274409e-02
  43,     8.4011,     14.700,    9.781531e-03
  44,     8.3850,     14.700,    8.778034e-03
  45,     8.3731,     14.700,    7.103130e-03
  46,     8.3507,     14.700,    5.395622e-03
  47,     8.3201,     14.700,    7.578827e-03
  48,     8.3017,     14.700,    5.173754e-03
  49,     8.2871,     14.700,    6.869840e-03
  50,     8.2642,     14.700,    5.606466e-03
  51,     8.2296,     14.700,    4.308515e-03
  52,     8.2178,     14.700,    5.472787e-03
  53,     8.2034,     14.700,    5.176588e-03
  54,     8.1896,     14.700,    6.798201e-03
  55,     8.1751,     14.700,    3.474968e-03
  56,     8.1641,     14.700,    3.128990e-03
  57,     8.1482,     14.700,    4.812248e-03
  58,     8.1296,     14.700,    4.434251e-03
  59,     8.1171,     14.700,    3.566695e-03
  60,     8.1063,     14.700,    5.367970e-03
  61,     8.0935,     14.700,    5.308414e-03
  62,     8.0756,     14.700,    5.916244e-03
  63,     8.0665,     14.700,    8.205959e-03
  64,     8.0437,     14.700,    6.143069e-03
  65,     8.0246,     14.700,    4.543701e-03
  66,     8.0104,     14.700,    5.091261e-03
  67,     7.9871,     14.700,    6.098680e-03
  68,     7.9661,     14.700,    5.754901e-03
  69,     7.9502,     14.700,    5.748653e-03
  70,     7.9332,     13.789,    2.882934e-03
  71,     7.9245,     14.700,    4.308693e-03
  72,     7.9169,     14.700,    2.632737e-03
  73,     7.9049,     14.700,    5.737245e-03
  74,     7.8960,     14.700,    4.148534e-03
  75,     7.8873,      7.737,    1.403820e-03
  76,     7.8813,      4.341,    1.282553e-03
  77,     7.8772,      5.029,    1.653502e-03
  78,     7.8660,     14.700,    8.328823e-03
  79,     7.8566,     14.700,    9.327075e-03
  80,     7.8452,     14.700,    3.153069e-03
  81,     7.8329,     14.700,    3.236197e-03
  82,     7.8218,     14.700,    4.309725e-03
  83,     7.8102,     14.700,    3.946713e-03
  84,     7.7981,     14.700,    3.360886e-03
  85,     7.7895,     14.700,    5.413328e-03
  86,     7.7696,     14.700,    6.052218e-03
  87,     7.7564,     14.700,    4.988518e-03
  88,     7.7321,     14.700,    4.234155e-03
  89,     7.7184,     14.700,    5.180965e-03
  90,     7.7056,     14.700,    2.739091e-03
  91,     7.6950,     14.700,    3.398536e-03
  92,     7.6863,     14.700,    2.113522e-03
  93,     7.6773,     14.700,    4.449346e-03
  94,     7.6668,     14.700,    4.525953e-03
  95,     7.6562,     14.700,    2.080405e-03
  96,     7.6416,     14.700,    3.875592e-03
  97,     7.6320,     14.700,    3.946889e-03
  98,     7.6273,      3.624,    1.154617e-03
  99,     7.6203,     14.700,    3.491869e-03
 100,     7.6118,      7.387,    2.366980e-03
 101,     7.6028,     14.700,    5.697684e-03
 102,     7.5927,     14.700,    2.917631e-03
 103,     7.5814,     14.700,    3.897011e-03
 104,     7.5698,     14.700,    3.642128e-03
 105,     7.5519,     14.700,    5.390472e-03
 106,     7.5425,     14.700,    8.594688e-03
 107,     7.5319,     14.700,    6.004748e-03
 108,     7.5225,     14.700,    4.557442e-03
 109,     7.5157,     14.700,    4.084392e-03
 110,     7.5097,      0.406,    3.014885e-04
 111,     7.5024,     14.700,    2.364639e-03
 112,     7.4957,      4.478,    1.211608e-03
 113,     7.4891,      7.473,    1.756006e-03
 114,     7.4828,     12.683,    6.637916e-03
 115,     7.4793,      6.450,    1.417726e-03
 116,     7.4726,     12.530,    9.829602e-03
 117,     7.4675,      2.715,    9.860834e-04
 118,     7.4629,     13.042,    7.075211e-03
 119,     7.4383,     14.700,    5.028186e-03
 120,     7.4018,     14.700,    3.889010e-03
 121,     7.3900,     14.700,    3.547544e-03
 122,     7.3760,     14.700,    3.125754e-03
 123,     7.3577,     14.700,    4.757860e-03
 124,     7.3351,     14.700,    4.513443e-03
 125,     7.2882,     14.700,    5.878698e-03
 126,     7.2669,     14.700,    5.738921e-03
 127,     7.2520,     14.700,    5.442483e-03
 128,     7.2374,     14.700,    5.049992e-03
 129,     7.1824,     14.700,    5.356899e-03
 130,     7.1412,     14.700,    5.766030e-03
 131,     7.1277,     14.700,    4.655104e-03
 132,     7.1087,     14.700,    5.236202e-03
 133,     7.0974,     14.700,    4.486066e-03
 134,     7.0794,     14.700,    8.938992e-03
 135,     7.0702,     14.700,    3.121152e-03
 136,     7.0534,     14.700,    4.418229e-03
 137,     7.0433,     14.700,    3.673490e-03
 138,     7.0375,     14.700,    4.785231e-03
 139,     7.0237,     14.700,    4.283773e-03
 140,     7.0114,     14.700,    5.211700e-03
 141,     6.9865,     14.700,    4.480893e-03
 142,     6.9758,     14.700,    5.545947e-03
 143,     6.9574,     14.700,    5.931743e-03
 144,     6.9425,     14.700,    4.345479e-03
 145,     6.9292,     14.700,    2.779309e-03
 146,     6.9184,     14.700,    5.359661e-03
 147,     6.9093,      4.037,    1.019125e-03
 148,     6.9028,     12.310,    4.283302e-03
 149,     6.8947,      6.211,    1.910871e-03
 150,     6.8753,     14.700,    4.780255e-03
 151,     6.8603,     14.700,    4.817599e-03
 152,     6.8469,     14.700,    3.971967e-03
 153,     6.8335,     14.700,    4.895853e-03
 154,     6.8109,     14.700,    5.536777e-03
 155,     6.7907,     14.700,    5.101662e-03
 156,     6.7753,     14.700,    4.055869e-03
 157,     6.7655,     14.700,    3.836076e-03
 158,     6.7593,     14.700,    4.948814e-03
 159,     6.7444,     14.700,    5.201029e-03
 160,     6.7351,     14.700,    2.575340e-03
 161,     6.7282,     14.700,    2.968197e-03
 162,     6.7040,     14.700,    7.371502e-03
 163,     6.6629,     14.700,    7.824440e-03
 164,     6.6253,     14.700,    6.398543e-03
 165,     6.5851,     14.700,    6.678396e-03
 166,     6.5562,     14.700,    8.060469e-03
 167,     6.5233,     14.700,    7.103087e-03
 168,     6.5090,     14.700,    6.125753e-03
 169,     6.4887,     14.700,    4.571762e-03
 170,     6.4744,     14.700,    4.063188e-03
 171,     6.4554,     14.700,    5.208051e-03
 172,     6.4424,     14.700,    3.698647e-03
 173,     6.4254,     14.700,    4.109277e-03
 174,     6.4111,     14.700,    3.044178e-03
 175,     6.3950,      5.594,    1.853389e-03
 176,     6.3899,      6.969,    3.048851e-03
 177,     6.3804,     14.700,    4.454630e-03
 178,     6.3692,     14.700,    3.446638e-03
 179,     6.3632,     10.533,    4.398474e-03
 180,     6.3509,     14.700,    4.268298e-03
 181,     6.3323,     14.700,    2.864312e-03
 182,     6.3260,     14.700,    2.457536e-03
 183,     6.3134,     14.700,    4.065491e-03
 184,     6.3051,     14.700,    2.730221e-03
 185,     6.2966,     14.700,    3.430374e-03
 186,     6.2880,     14.700,    2.588416e-03
 187,     6.2796,     14.700,    2.852584e-03
 188,     6.2667,     14.700,    3.449225e-03
 189,     6.2518,     14.700,    3.305914e-03
 190,     6.2437,     14.700,    3.774383e-03
 191,     6.2307,     14.700,    4.965193e-03
 192,     6.2186,     14.700,    3.932487e-03
 193,     6.2015,     14.700,    4.063853e-03
 194,     6.1890,     14.700,    3.271798e-03
 195,     6.1747,     14.700,    3.701885e-03
 196,     6.1531,     14.700,    5.455845e-03
 197,     6.1470,     14.700,    5.547394e-03
 198,     6.1365,     14.700,    4.916708e-03
 199,     6.1194,     14.700,    4.089550e-03
 200,     6.0987,     14.700,    5.873808e-03
 201,     6.0821,     14.700,    5.364250e-03
 202,     6.0637,     14.700,    5.006428e-03
 203,     6.0508,     14.700,    3.691140e-03
 204,     6.0457,     14.700,    3.297139e-03
 205,     6.0363,     14.700,    3.632601e-03
 206,     6.0245,     14.700,    4.546274e-03
 207,     6.0143,      9.856,    2.054235e-03
 208,     6.0079,      8.365,    2.073477e-03
 209,     5.9999,     14.700,    4.990049e-03
 210,     5.9845,     14.700,    5.176554e-03
 211,     5.9707,     14.700,    4.003970e-03
 212,     5.9510,     14.700,    6.169065e-03
 213,     5.9353,     14.700,    4.571006e-03
 214,     5.9197,     14.700,    6.204681e-03
 215,     5.8941,     14.700,    5.490193e-03
 216,     5.6729,     14.700,    8.951671e-03
 217,     5.6360,     14.700,    3.417236e-03
 218,     5.6265,      8.876,    2.957286e-03
 219,     5.6180,     14.700,    4.548478e-03
 220,     5.5998,     14.700,    4.377814e-03
 221,     5.5829,     14.700,    3.467922e-03
 222,     5.5715,     14.700,    3.819180e-03
 223,     5.5636,     14.700,    3.326337e-03
 224,     5.5457,     14.700,    8.723782e-03
 225,     5.5215,     14.700,    4.792509e-03
 226,     5.5085,     14.700,    4.325072e-03
 227,     5.4990,     14.700,    6.882236e-03
 228,     5.4877,     14.700,    4.634557e-03
 229,     5.4742,     14.700,    5.019146e-03
 230,     5.4621,     14.700,    5.843963e-03
 231,     5.4540,      5.218,    1.868132e-03
 232,     5.4455,     14.700,    5.367804e-03
 233,     5.4320,     14.700,    4.652658e-03
 234,     5.4130,     14.700,    6.375773e-03
 235,     5.3951,     14.700,    5.376947e-03
 236,     5.3779,      1.244,    9.728490e-04
 237,     5.3734,      6.170,    1.635005e-03
 238,     5.3663,     14.700,    3.997970e-03
 239,     5.3513,     14.700,    2.589112e-03
 240,     5.3401,     11.863,    2.145278e-03
 241,     5.3296,     14.700,    5.511089e-03
 242,     5.3116,     14.700,    7.020881e-03
 243,     5.2997,     14.700,    5.368767e-03
 244,     5.2794,     14.700,    6.061483e-03
 245,     5.2561,     14.700,    4.990974e-03
 246,     5.2132,     14.700,    7.301937e-03
 247,     5.2026,     14.700,    4.973841e-03
 248,     5.1831,     14.700,    5.737770e-03
 249,     5.1754,     14.700,    3.587008e-03
 250,     5.1638,     14.700,    5.230607e-03
 251,     5.1503,     14.700,    4.641154e-03
 252,     5.1374,     14.700,    3.929493e-03
 253,     5.1273,      5.149,    1.672605e-03
 254,     5.1163,     14.700,    4.879262e-03
 255,     5.1014,     14.700,    4.452478e-03
 256,     5.0825,     14.700,    4.638348e-03
 257,     5.0457,     14.700,    4.731365e-03
 258,     5.0278,     14.700,    3.884298e-03
 259,     5.0141,     14.700,    4.976932e-03
 260,     4.9927,     14.700,    5.257178e-03
 261,     4.9839,     14.700,    5.025697e-03
 262,     4.9721,     14.700,    5.422736e-03
 263,     4.9581,     14.700,    5.743569e-03
 264,     4.9427,     14.700,    5.055005e-03
 265,     4.9316,     14.700,    5.404945e-03
 266,     4.9210,     14.700,    4.826912e-03
 267,     4.9029,     14.700,    4.543410e-03
 268,     4.8931,     14.700,    4.409925e-03
 269,     4.8802,     14.700,    3.547203e-03
 270,     4.8707,     14.700,    4.421544e-03
 271,     4.8619,     14.700,    6.346652e-02
 272,     4.8510,     14.700,    5.958623e-02
 273,     4.8401,     14.700,    5.834846e-02
 274,     4.8292,     14.700,    5.798263e-02
 275,     4.8182,     14.700,    5.856002e-02
 276,     4.8067,     14.700,    6.091018e-02
 277,     4.7952,     14.700,    6.603861e-02
 278,     4.7870,     14.700,    6.542027e-02
 279,     4.7769,      3.753,    6.555167e-02
 280,     4.7654,     14.700,    8.179861e-02
 281,     4.7527,     14.700,    8.052445e-02
 282,     4.7388,     14.700,    7.944319e-02
 283,     4.7250,     14.700,    8.114124e-02
 284,     4.7177,     14.700,    4.450350e-03
 285,     4.7047,     14.700,    3.040819e-03
 286,     4.6937,     14.700,    4.254982e-03
 287,     4.6803,     14.700,    3.397333e-03
 288,     4.6707,     14.700,    3.174391e-03
 289,     4.6585,     14.700,    4.016415e-03
 290,     4.6479,     14.700,    4.024579e-03
 291,     4.6347,     14.700,    3.974439e-03
 292,     4.6253,     14.700,    4.100932e-03
 293,     4.6111,     14.700,    4.491998e-03
 294,     4.5979,     14.700,    5.174934e-03
 295,     4.5822,     14.700,    6.137306e-03
 296,     4.5634,     14.700,    4.293896e-03
 297,     4.5427,     14.700,    4.957941e-03
 298,     4.5152,     14.700,    5.319460e-03
 299,     4.5019,     14.700,    5.708755e-03
 300,     4.4904,     14.700,    5.117300e-03
 301,     4.4719,     14.700,    6.294034e-03
 302,     4.4479,     14.700,    6.556714e-03
 303,     4.4178,     14.700,    5.903236e-03
 304,     4.3989,     14.700,    5.264111e-03
 305,     4.3849,     14.700,    6.179333e-03
 306,     4.3714,     14.700,    5.552725e-03
 307,     4.3533,     14.700,    7.014771e-03
 308,     4.3399,     11.412,    2.020610e-03
 309,     4.3333,      2.012,    8.151048e-04
 310,     4.3260,     14.700,    2.476980e-03
 311,     4.3145,     14.700,    2.696795e-03
 312,     4.3032,     14.700,    2.321333e-03
 313,     4.2895,     14.700,    1.827727e-03
 314,     4.2806,     14.700,    3.901760e-03
 315,     4.2675,     14.700,    3.067395e-03
 316,     4.2584,     14.700,    3.072084e-03
 317,     4.2457,     14.700,    3.926252e-03
 318,     4.2377,     12.704,    4.649565e-03
 319,     4.2319,      3.759,    1.182980e-03
 320,     4.2252,     14.700,    5.675225e-03
 321,     4.2156,     14.700,    4.425601e-03
 322,     4.2088,     13.170,    3.797030e-03
 323,     4.1979,     14.700,    6.205741e-03
 324,     4.1819,     14.700,    8.011957e-03
 325,     4.1630,     14.700,    7.361141e-03
 326,     4.1460,     14.700,    8.387128e-03
 327,     4.1283,     14.700,    6.696495e-03
 328,     4.1086,     14.700,    1.093070e-02
 329,     4.0946,     14.700,    1.033102e-02
 330,     4.0870,     14.154,    4.096781e-03
 331,     4.0761,     14.700,    2.637413e-03
 332,     4.0624,     13.578,    4.357700e-03
 333,     4.0535,     14.700,    2.161751e-03
 334,     4.0406,     14.700,    2.800517e-03
 335,     4.0276,     14.700,    5.471171e-03
 336,     4.0138,     14.700,    4.864071e-03
 337,     4.0000,     14.700,    4.078810e-03
 338,     3.9903,     14.700,    4.496821e-03
 339,     3.9765,     14.700,    4.064390e-03
 340,     3.9696,     14.700,    3.631844e-03
 341,     3.9622,     14.700,    3.361110e-03
 342,     3.9539,     12.983,    1.722472e-02
 343,     3.9371,     14.700,    3.130039e-03
 344,     3.9283,     14.700,    3.851905e-03
 345,     3.9210,     14.700,    2.634212e-03
 346,     3.9098,     10.985,    2.152920e-03
 347,     3.9017,     14.700,    3.289839e-03
 348,     3.8828,     14.700,    4.586692e-03
 349,     3.8671,     14.700,    5.634520e-03
 350,     3.8446,     14.700,    5.236972e-03
 351,     3.8321,     14.700,    5.361090e-03
 352,     3.8229,     14.700,    6.410060e-03
 353,     3.8120,     14.700,    9.267638e-03
 354,     3.8037,     14.700,    7.843494e-03
 355,     3.8015,     14.700,    5.600582e-03
 356,     3.7855,     14.700,    3.837847e-03
 357,     3.7705,     14.700,    6.533651e-03
 358,     3.7613,     14.700,    3.882538e-03
 359,     3.7420,     14.700,    4.132253e-03
 360,     3.7365,      1.945,    9.017439e-04
 361,     3.7281,     14.700,    7.971718e-03
 362,     3.7202,     14.700,    8.204473e-03
 363,     3.7140,      9.082,    3.394034e-03
 364,     3.7101,     11.892,    3.562310e-03
 365,     3.7046,     14.700,    5.898468e-03
 366,     3.6917,     14.700,    2.773423e-03
 367,     3.6806,     14.700,    3.242042e-03
 368,     3.6688,     11.771,    2.462998e-03
 369,     3.6637,      1.031,    8.711983e-04
 370,     3.6569,     10.485,    5.337240e-03
 371,     3.6495,     12.776,    5.501142e-03
 372,     3.6439,     13.495,    6.285139e-03
 373,     3.6354,     12.977,    9.535080e-03
 374,     3.6295,     14.700,    9.027952e-03
 375,     3.6170,     14.700,    2.504973e-03
 376,     3.6003,     14.700,    3.375690e-03
 377,     3.5920,      4.331,    1.315796e-03
 378,     3.5826,     14.700,    3.396801e-03
 379,     3.5673,      0.000,    3.759971e-04
 380,     3.5612,     12.213,    8.737437e-03
 381,     3.5578,      0.000,    3.737706e-04
 382,     3.5526,      8.178,    5.208581e-03
 383,     3.5456,      9.354,    4.781527e-03
 384,     3.5377,     14.700,    7.035838e-03
 385,     3.5194,     14.700,    4.102983e-03
 386,     3.5056,     14.700,    5.539847e-03
 387,     3.4838,     14.700,    3.958473e-03
 388,     3.4450,     14.700,    3.901080e-03
 389,     3.4150,     14.700,    4.178031e-03
 390,     3.4083,      6.094,    2.123428e-03
 391,     3.3994,     14.700,    3.491874e-03
 392,     3.3932,      6.792,    1.547655e-03
 393,     3.3785,     14.700,    3.946530e-03
 394,     3.3688,     12.445,    4.186096e-03
 395,     3.3619,      6.700,    3.919502e-03
 396,     3.3568,     13.331,    3.783186e-03
 397,     3.3448,     14.700,    1.240791e-02
 398,     3.3334,     14.700,    3.588295e-03
 399,     3.3272,      6.965,    2.212049e-03
 400,     3.3127,     14.700,    3.973516e-03
 401,     3.2815,     14.700,    3.137034e-03
 402,     3.2704,     14.700,    2.751790e-03
 403,     3.2470,     14.700,    1.998761e-02
 404,     3.2412,     14.700,    1.457428e-02
 405,     3.2379,     13.508,    8.451795e-03
 406,     3.2347,     14.700,    1.606760e-02
 407,     3.2202,     14.700,    3.025617e-03
 408,     3.2059,     14.700,    3.752490e-03
 409,     3.1893,     14.700,    4.658531e-03
 410,     3.1749,     14.700,    5.746922e-03
 411,     3.1620,     14.700,    5.579762e-03
 412,     3.1455,     14.700,    5.269322e-03
 413,     3.1288,     14.700,    6.021524e-03
 414,     3.1169,     14.700,    6.783963e-03
 415,     3.0998,     14.700,    8.575819e-03
 416,     3.0941,     12.552,    2.480428e-03
 417,     3.0825,     14.700,    2.893638e-03
 418,     3.0674,     14.700,    2.968803e-03
 419,     3.0546,     14.700,    2.846797e-03
 420,     3.0463,     14.700,    2.700493e-03
 421,     3.0379,     14.700,    3.721006e-03
 422,     3.0248,      1.379,    7.756007e-04
 423,     3.0181,     14.700,    2.928891e-03
 424,     3.0110,     14.700,    3.087775e-03
 425,     2.9945,     14.700,    2.566256e-03
 426,     2.9779,     14.700,    3.573425e-03
 427,     2.9685,     14.700,    4.710675e-03
 428,     2.9589,     14.700,    3.223102e-03
 429,     2.9486,     14.700,    3.435766e-03
 430,     2.9370,     14.700,    3.605913e-03
 431,     2.9259,     14.700,    3.882568e-03
 432,     2.9160,     14.700,    3.408828e-03
 433,     2.9066,     14.700,    7.257115e-03
