index,   freq_ppm,   decay_hz, amplitude
   1,     9.0792,     10.459,    3.029341e-03
   2,     9.0716,     14.700,    4.242944e-03
   3,     9.0644,     14.700,    2.966186e-03
   4,     9.0561,     13.236,    3.064696e-03
   5,     9.0447,     14.190,    4.945292e-03
   6,     9.0375,     13.514,    3.958084e-03
   7,     9.0297,     14.700,    2.954014e-03
   8,     9.0187,      6.557,    2.218614e-03
   9,     9.0093,     14.700,    2.629654e-03
  10,     9.0026,     14.700,    5.047318e-03
  11,     8.9931,      9.735,    2.071496e-03
  12,     8.9879,      7.949,    1.168891e-03
  13,     8.9810,      9.070,    2.439504e-03
  14,     8.9741,      7.628,    2.389205e-03
  15,     8.9583,     14.700,    3.780246e-03
  16,     8.9422,     14.700,    3.001173e-03
  17,     8.9346,     14.700,    3.933769e-03
  18,     8.9077,     14.700,    4.640860e-03
  19,     8.8933,     14.700,    4.630214e-03
  20,     8.8817,     14.700,    3.491188e-03
  21,     8.8679,     14.700,    3.762592e-03
  22,     8.8573,     14.700,    2.763941e-03
  23,     8.8381,     14.700,    3.940329e-03
  24,     8.8226,     14.700,    3.992046e-03
  25,     8.7977,     14.700,    5.554522e-03
  26,     8.7918,     14.700,    4.393477e-03
  27,     8.7809,     14.700,    1.574171e-03
  28,     8.7690,     14.700,    3.207974e-03
  29,     8.7577,     14.700,    3.454746e-03
  30,     8.7388,     14.700,    3.330235e-03
  31,     8.7289,     14.089,    3.365500e-03
  32,     8.7166,     14.700,    4.300360e-03
  33,     8.6995,     14.700,    5.523086e-03
  34,     8.6842,     14.700,    3.516752e-03
  35,     8.6708,     14.700,    4.289549e-03
  36,     8.6584,     14.700,    3.169590e-03
  37,     8.6472,     14.700,    5.549300e-03
  38,     8.6246,     14.700,    3.319844e-03
  39,     8.6138,     14.700,    3.039784e-03
  40,     8.6047,     14.700,    3.891388e-03
  41,     8.5843,     14.700,    3.230399e-03
  42,     8.5720,     14.700,    4.244016e-03
  43,     8.5639,     13.236,    9.927250e-03
  44,     8.5558,     14.700,    5.404389e-03
  45,     8.5405,     14.700,    5.757356e-03
  46,     8.5263,     14.700,    6.209504e-03
  47,     8.5145,     14.700,    5.999999e-03
  48,     8.5022,     14.700,    5.325398e-03
  49,     8.4905,      8.507,    2.148097e-03
  50,     8.4817,      7.753,    1.632620e-03
  51,     8.4718,      9.215,    2.421896e-03
  52,     8.4473,      5.616,    8.306225e-02
  53,     8.4458,      5.757,    2.201437e-01
  54,     8.4444,     10.368,    2.072211e-01
  55,     8.4373,     14.700,    4.035711e-02
  56,     8.4282,     14.700,    1.658070e-02
  57,     8.4113,     14.700,    1.459839e-02
  58,     8.3961,     14.700,    1.196218e-02
  59,     8.3861,      3.117,    1.062768e-03
  60,     8.3787,      6.127,    1.790627e-03
  61,     8.3720,      8.601,    8.822530e-04
  62,     8.3645,     13.938,    2.652979e-03
  63,     8.3547,     14.700,    3.001745e-03
  64,     8.3462,     14.700,    3.723836e-03
  65,     8.3205,     14.700,    8.825243e-03
  66,     8.3030,     14.700,    2.877095e-03
  67,     8.2937,     14.700,    2.441933e-03
  68,     8.2829,     14.700,    3.052910e-03
  69,     8.2576,     12.671,    3.363948e-03
  70,     8.2504,     14.392,    3.161369e-03
  71,     8.2437,     14.700,    2.942721e-03
  72,     8.2320,     14.700,    3.236250e-03
  73,     8.2237,     14.700,    3.841090e-03
  74,     8.2107,     14.700,    4.731356e-03
  75,     8.1950,     14.700,    4.475269e-03
  76,     8.1749,     14.700,    5.395342e-03
  77,     8.1494,     14.700,    4.157916e-03
  78,     8.1398,     14.700,    4.313111e-03
  79,     8.1225,     14.700,    4.228790e-03
  80,     8.1183,     14.700,    4.214213e-03
  81,     8.1072,     14.700,    3.408742e-03
  82,     8.0965,      6.948,    3.075916e-03
  83,     8.0912,      0.000,    2.231922e-04
  84,     8.0896,      5.283,    2.252694e-03
  85,     8.0814,     14.700,    4.645836e-03
  86,     8.0740,     14.700,    4.283193e-03
  87,     8.0671,      4.050,    9.301968e-04
  88,     8.0606,     12.571,    3.575367e-03
  89,     8.0537,     14.700,    4.388600e-03
  90,     8.0481,      5.545,    1.681073e-03
  91,     8.0424,      5.691,    1.644599e-03
  92,     8.0383,      9.472,    1.279182e-03
  93,     8.0324,      6.967,    1.624911e-03
  94,     8.0276,      5.273,    1.445535e-03
  95,     8.0193,      9.826,    1.609841e-03
  96,     8.0100,     14.700,    2.366368e-03
  97,     8.0042,     11.024,    3.085542e-03
  98,     7.9950,     12.194,    3.436526e-03
  99,     7.9884,     12.224,    2.494563e-03
 100,     7.9770,     14.700,    3.301988e-03
 101,     7.9594,     14.700,    3.680900e-03
 102,     7.9506,      6.439,    1.357858e-03
 103,     7.9431,     14.700,    3.145780e-03
 104,     7.9356,     14.700,    3.627980e-03
 105,     7.9231,     12.934,    2.481426e-03
 106,     7.9145,     14.700,    3.773318e-03
 107,     7.8993,     14.700,    2.094090e-03
 108,     7.8690,     14.700,    5.579644e-02
 109,     7.8590,     14.700,    6.314801e-02
 110,     7.8531,     14.700,    7.426712e-03
 111,     7.8422,     14.700,    4.521037e-03
 112,     7.8268,     14.700,    4.741160e-03
 113,     7.8137,     14.700,    6.972461e-03
 114,     7.7990,      8.541,    2.315161e-03
 115,     7.7941,      4.798,    1.218736e-03
 116,     7.7842,     10.677,    2.094438e-03
 117,     7.7770,     13.978,    3.488385e-03
 118,     7.7710,     14.700,    4.463628e-03
 119,     7.7610,     14.700,    4.536501e-03
 120,     7.7427,     14.700,    5.074653e-03
 121,     7.7340,     14.700,    4.170625e-03
 122,     7.7228,     14.700,    4.687314e-03
 123,     7.7105,     14.700,    5.090068e-03
 124,     7.6957,     14.700,    4.450824e-03
 125,     7.6868,     14.700,    2.185292e-03
 126,     7.6777,     14.700,    2.943694e-03
 127,     7.6626,     14.700,    2.252442e-03
 128,     7.6532,      5.182,    1.656618e-03
 129,     7.6409,     14.700,    3.796648e-03
 130,     7.6282,     14.700,    3.519179e-03
 131,     7.6163,     14.700,    3.830139e-03
 132,     7.6061,     14.700,    3.623765e-03
 133,     7.5921,     14.700,    2.801043e-03
 134,     7.5788,     14.700,    2.976608e-03
 135,     7.5678,     14.700,    3.242518e-03
 136,     7.5584,     14.700,    3.390907e-03
 137,     7.5520,     10.256,    3.258778e-03
 138,     7.5437,     14.700,    6.383365e-03
 139,     7.5339,      7.079,    2.777246e-03
 140,     7.5270,     14.700,    3.350875e-03
 141,     7.5156,      7.994,    1.163247e-03
 142,     7.5067,     10.005,    2.778296e-03
 143,     7.5013,      7.278,    1.399075e-03
 144,     7.4944,     14.700,    3.561802e-03
 145,     7.4831,     14.700,    6.196595e-03
 146,     7.4731,     14.700,    1.097331e-02
 147,     7.4632,     14.700,    3.843918e-03
 148,     7.4544,     14.700,    4.815623e-03
 149,     7.4322,     14.700,    4.738266e-03
 150,     7.4164,     14.700,    1.961358e-03
 151,     7.4079,     14.700,    2.156054e-03
 152,     7.3919,     14.700,    3.323657e-03
 153,     7.3808,     14.700,    5.395219e-03
 154,     7.3651,     14.700,    3.952627e-03
 155,     7.3573,     11.431,    2.540962e-03
 156,     7.3506,      2.463,    6.050785e-04
 157,     7.3402,     14.700,    3.457373e-03
 158,     7.3318,     14.700,    2.291407e-03
 159,     7.3187,     13.617,    3.607329e-03
 160,     7.3091,     14.700,    2.840159e-03
 161,     7.2976,     14.700,    1.753347e-03
 162,     7.2881,     11.430,    1.752459e-03
 163,     7.2821,      7.475,    1.815501e-03
 164,     7.2761,      5.430,    2.225635e-03
 165,     7.2706,      6.212,    2.741157e-03
 166,     7.2654,      5.579,    1.487633e-03
 167,     7.2604,      2.934,    8.149351e-04
 168,     7.2547,      8.856,    2.889335e-03
 169,     7.2473,      5.673,    1.932586e-03
 170,     7.2399,     14.420,    3.944457e-03
 171,     7.2312,     14.700,    3.422524e-03
 172,     7.2212,     14.700,    3.950348e-03
 173,     7.2106,     14.700,    4.131668e-03
 174,     7.1989,     14.700,    4.890536e-03
 175,     7.1835,     14.700,    5.606081e-03
 176,     7.1715,     14.700,    2.323664e-03
 177,     7.1572,     14.700,    4.355446e-03
 178,     7.1489,     14.700,    3.846243e-03
 179,     7.1390,     14.700,    5.662943e-03
 180,     7.1296,     14.700,    3.560190e-03
 181,     7.1197,     14.700,    5.209391e-03
 182,     7.1164,      6.166,    1.396409e-03
 183,     7.1067,      6.361,    1.486257e-03
 184,     7.1016,      6.040,    8.160396e-04
 185,     7.0911,      5.523,    1.487519e-03
 186,     7.0876,      7.469,    1.289739e-03
 187,     7.0794,     14.700,    6.226725e-03
 188,     7.0609,     14.700,    4.777723e-03
 189,     7.0504,     14.700,    3.016850e-03
 190,     7.0406,     14.700,    3.112248e-03
 191,     7.0284,     14.700,    3.017991e-03
 192,     7.0127,     14.700,    4.382044e-03
 193,     7.0013,     14.700,    3.545099e-03
 194,     6.9937,     14.700,    2.861032e-03
 195,     6.9765,     14.700,    4.570654e-03
 196,     6.9662,     14.700,    2.965169e-03
 197,     6.9503,     14.700,    3.321995e-03
 198,     6.9389,     14.700,    2.388741e-03
 199,     6.9258,     12.624,    3.149744e-03
 200,     6.9124,     14.700,    2.374096e-03
 201,     6.9048,     13.082,    2.552474e-03
 202,     6.8976,     14.700,    2.604511e-03
 203,     6.8850,     14.700,    3.154898e-03
 204,     6.8734,     14.700,    2.270330e-03
 205,     6.8646,     12.669,    2.857362e-03
 206,     6.8534,     14.700,    3.108844e-03
 207,     6.8420,     11.980,    1.760059e-03
 208,     6.8272,     14.700,    3.237592e-03
 209,     6.8073,     14.700,    3.572392e-03
 210,     6.7859,     14.700,    2.612816e-03
 211,     6.7747,     14.700,    3.935122e-03
 212,     6.7578,     14.700,    2.716934e-03
 213,     6.7495,     14.700,    2.606465e-03
 214,     6.7406,      5.159,    1.200856e-03
 215,     6.7320,     14.700,    3.506192e-03
 216,     6.7211,     14.700,    3.029760e-03
 217,     6.7069,     14.700,    2.370735e-03
 218,     6.6942,     11.581,    2.208424e-03
 219,     6.6844,     14.700,    2.878772e-03
 220,     6.6663,     14.700,    3.818442e-03
 221,     6.6497,     14.700,    3.293522e-03
 222,     6.6342,     10.310,    1.911016e-03
 223,     6.6251,     12.936,    3.786745e-03
 224,     6.6126,     14.700,    3.274208e-03
 225,     6.5967,     14.555,    3.488201e-03
 226,     6.5858,     14.700,    5.806162e-03
 227,     6.5732,     14.700,    3.945694e-03
 228,     6.5460,     14.700,    4.527151e-03
 229,     6.5341,     14.700,    4.957040e-03
 230,     6.5130,     14.700,    3.307064e-03
 231,     6.5021,     14.700,    3.785883e-03
 232,     6.4883,     14.700,    2.688400e-03
 233,     6.4793,      6.908,    1.059163e-03
 234,     6.4715,     14.700,    2.859795e-03
 235,     6.4636,     14.700,    2.987153e-03
 236,     6.4468,     14.700,    2.293739e-03
 237,     6.4382,     14.700,    2.615332e-03
 238,     6.4258,     14.700,    4.957432e-03
 239,     6.4183,      9.565,    2.307385e-03
 240,     6.4120,     12.273,    3.510364e-03
 241,     6.4044,     11.620,    3.743135e-03
 242,     6.3957,     14.700,    5.174208e-03
 243,     6.3869,      4.574,    9.299723e-04
 244,     6.3784,     14.447,    3.357818e-03
 245,     6.3694,      8.320,    3.360346e-03
 246,     6.3619,     14.700,    5.698868e-03
 247,     6.3511,     14.700,    4.517812e-03
 248,     6.3416,     14.700,    2.874087e-03
 249,     6.3339,      7.096,    1.814470e-03
 250,     6.3297,      9.679,    1.797738e-03
 251,     6.3229,      8.519,    1.888600e-03
 252,     6.3169,      7.850,    1.783044e-03
 253,     6.3069,     14.700,    2.522334e-03
 254,     6.2996,      5.449,    9.726488e-04
 255,     6.2920,     14.700,    2.800799e-03
 256,     6.2835,      9.736,    2.406259e-03
 257,     6.2730,     14.700,    3.776423e-03
 258,     6.2644,      7.940,    2.226175e-03
 259,     6.2574,      0.960,    3.455572e-04
 260,     6.2528,      6.264,    1.646199e-03
 261,     6.2451,      6.437,    5.240409e-04
 262,     6.2419,      3.698,    7.732220e-04
 263,     6.2346,     11.360,    3.784313e-03
 264,     6.2283,      4.533,    5.155673e-04
 265,     6.2223,      8.530,    2.128246e-03
 266,     6.2149,     14.700,    3.894935e-03
 267,     6.2052,      8.896,    1.579678e-03
 268,     6.1954,     14.700,    2.875655e-03
 269,     6.1880,     13.754,    3.319910e-03
 270,     6.1810,      6.391,    1.219026e-03
 271,     6.1769,     11.481,    1.130838e-03
 272,     6.1655,     14.700,    5.273033e-03
 273,     6.1509,     14.700,    5.391318e-03
 274,     6.1410,     14.700,    4.552834e-03
 275,     6.1303,     14.700,    6.385663e-03
 276,     6.1157,     14.700,    4.764310e-03
 277,     6.1012,     14.700,    4.026891e-03
 278,     6.0912,     11.080,    2.556776e-03
 279,     6.0846,     11.355,    4.210143e-03
 280,     6.0767,     13.894,    4.454313e-03
 281,     6.0655,     14.700,    3.572017e-03
 282,     6.0559,     14.700,    3.387163e-03
 283,     6.0474,     14.700,    3.791199e-03
 284,     6.0344,     14.700,    4.314464e-03
 285,     6.0202,     14.700,    3.184129e-03
 286,     6.0089,     14.700,    2.458176e-03
 287,     5.9999,     14.700,    3.499995e-03
 288,     5.9868,     14.700,    3.377121e-03
 289,     5.9791,     14.179,    2.243123e-03
 290,     5.9716,     14.700,    4.778580e-03
 291,     5.9582,     14.700,    2.922386e-03
 292,     5.9493,      3.247,    1.054241e-03
 293,     5.9440,     14.700,    2.025043e-03
 294,     5.9379,      6.800,    1.769025e-03
 295,     5.9306,      7.029,    1.168735e-03
 296,     5.9243,      9.191,    1.309653e-03
 297,     5.9107,     13.011,    3.405744e-02
 298,     5.9052,     14.375,    4.267309e-02
 299,     5.8962,     13.426,    3.905304e-02
 300,     5.8860,     12.755,    3.628891e-02
 301,     5.8784,     14.700,    4.772227e-03
 302,     5.8681,     14.700,    2.787874e-03
 303,     5.8624,     13.783,    3.651156e-03
 304,     5.8525,     14.700,    3.976305e-03
 305,     5.8430,     14.700,    3.452099e-03
 306,     5.8348,      7.652,    2.685962e-03
 307,     5.8261,     14.700,    3.813149e-03
 308,     5.8137,      6.456,    1.073312e-03
 309,     5.8088,      7.870,    1.037907e-03
 310,     5.8027,      7.161,    2.622533e-03
 311,     5.7941,     14.700,    4.048608e-03
 312,     5.7820,     14.700,    2.660086e-03
 313,     5.7725,     14.700,    1.882158e-03
 314,     5.7643,     14.700,    1.711671e-03
 315,     5.7520,     14.700,    3.431892e-03
 316,     5.7451,     14.700,    2.962759e-03
 317,     5.7353,      8.844,    1.572590e-03
 318,     5.7291,      6.239,    1.253564e-03
 319,     5.7180,     10.608,    3.073009e-03
 320,     5.7099,      8.492,    2.831861e-03
 321,     5.7037,     14.700,    5.430180e-03
 322,     5.6892,     14.700,    3.818925e-03
 323,     5.6688,     14.700,    4.606918e-03
 324,     5.6541,     14.700,    4.567553e-03
 325,     5.6380,     14.700,    5.882071e-03
 326,     5.6171,     14.700,    4.944758e-03
 327,     5.5942,     14.700,    4.994357e-03
 328,     5.5854,      9.312,    2.965467e-03
 329,     5.5777,      6.084,    1.954832e-03
 330,     5.5670,      4.656,    7.160233e-04
 331,     5.5635,     11.543,    2.305510e-03
 332,     5.5574,     14.700,    3.672099e-03
 333,     5.5383,     14.700,    4.974761e-03
 334,     5.5282,     13.713,    2.720728e-03
 335,     5.5174,     14.700,    3.915546e-03
 336,     5.5027,     14.700,    2.277217e-03
 337,     5.4865,     14.700,    3.665321e-03
 338,     5.4720,     14.700,    2.835321e-03
 339,     5.4576,     14.700,    3.307987e-03
 340,     5.4430,     14.700,    4.141499e-03
 341,     5.4237,     14.700,    2.907275e-03
 342,     5.4087,     14.700,    3.504314e-03
 343,     5.3971,     14.700,    3.708517e-03
 344,     5.3763,     14.700,    3.865747e-03
 345,     5.3664,     14.700,    3.727859e-03
 346,     5.3425,     14.700,    4.236611e-03
 347,     5.3270,     14.700,    3.389915e-03
 348,     5.3198,     11.230,    4.119689e-03
 349,     5.3155,      9.221,    2.977781e-03
 350,     5.3079,      8.500,    2.444539e-03
 351,     5.3032,      6.545,    2.143662e-03
 352,     5.2961,     12.404,    2.715072e-03
 353,     5.2872,     11.065,    2.989214e-03
 354,     5.2747,     14.700,    2.608836e-03
 355,     5.2641,     14.700,    2.765437e-03
 356,     5.2561,      7.303,    1.756131e-03
 357,     5.2477,     14.700,    4.013682e-03
 358,     5.2399,     12.046,    2.935010e-03
 359,     5.2330,      5.150,    1.545823e-03
 360,     5.2200,     10.947,    3.740832e-03
 361,     5.2100,     14.700,    2.597650e-03
 362,     5.2032,     14.700,    2.196427e-03
 363,     5.1970,      7.164,    1.656634e-03
 364,     5.1830,     14.700,    5.088538e-03
 365,     5.1710,     14.700,    3.730666e-03
 366,     5.1594,     14.700,    2.996793e-03
 367,     5.1507,     14.700,    2.983744e-03
 368,     5.1372,     14.700,    4.962105e-03
 369,     5.1213,     14.700,    5.159405e-03
 370,     5.0978,     14.700,    6.882137e-03
 371,     5.0693,     14.700,    5.094707e-03
 372,     5.0555,     14.700,    4.026725e-03
 373,     5.0345,     14.700,    4.648427e-03
 374,     5.0153,     14.700,    4.263428e-03
 375,     4.9947,     14.700,    5.148713e-03
 376,     4.9758,      5.671,    1.124283e-03
 377,     4.9703,     14.700,    1.737778e-03
 378,     4.9632,     11.320,    3.973760e-03
 379,     4.9538,      6.420,    9.594921e-04
 380,     4.9475,      8.121,    1.487681e-03
 381,     4.9401,      6.643,    1.624604e-03
 382,     4.9346,      4.165,    1.548473e-03
 383,     4.9285,      6.300,    1.689557e-03
 384,     4.9248,     14.700,    3.994571e-03
 385,     4.9081,     14.700,    3.650274e-03
 386,     4.9004,     14.700,    3.589438e-03
 387,     4.8844,     14.700,    2.444508e-03
 388,     4.8731,     14.700,    2.314786e-03
 389,     4.8665,     14.700,    3.697651e-03
 390,     4.8555,      5.226,    1.690447e-03
 391,     4.8503,      4.546,    1.362298e-03
 392,     4.8380,     14.700,    2.296645e-03
 393,     4.8318,     14.700,    2.266684e-03
 394,     4.8173,     14.700,    4.431743e-03
 395,     4.8048,     14.700,    3.943485e-02
 396,     4.7930,     14.700,    3.927425e-02
 397,     4.7822,     14.700,    4.024327e-02
 398,     4.7765,      2.179,    1.112041e-02
 399,     4.7687,      4.349,    1.178993e-02
 400,     4.7598,     14.700,    3.032154e-02
 401,     4.7536,     14.700,    3.390809e-02
 402,     4.7465,     14.700,    2.785818e-02
 403,     4.7397,     14.700,    2.398075e-02
 404,     4.7327,     14.700,    2.422647e-02
 405,     4.7266,      8.140,    2.487515e-03
 406,     4.7190,     10.691,    3.107229e-03
 407,     4.7072,     14.700,    3.127154e-03
 408,     4.6975,     14.700,    4.172389e-03
 409,     4.6865,     14.700,    3.611086e-03
 410,     4.6716,     14.700,    4.011403e-03
 411,     4.6620,     14.700,    4.589328e-03
 412,     4.6521,     14.700,    4.034115e-03
 413,     4.6373,     14.700,    3.755881e-03
 414,     4.6285,     14.700,    3.652544e-03
 415,     4.6156,      8.989,    1.896225e-03
 416,     4.6067,     14.700,    3.049778e-03
 417,     4.5948,     14.700,    2.342175e-03
 418,     4.5849,     14.700,    7.091684e-04
 419,     4.5776,     11.958,    3.563559e-03
 420,     4.5693,     12.541,    2.747786e-03
 421,     4.5630,      9.722,    2.491384e-03
 422,     4.5591,      2.638,    4.695700e-04
 423,     4.5546,      4.976,    8.750168e-04
 424,     4.5484,      4.096,    1.013217e-03
 425,     4.5417,     14.700,    4.027990e-03
 426,     4.5303,     11.087,    2.050049e-03
 427,     4.5167,      9.110,    2.848224e-03
 428,     4.5046,     14.700,    2.766896e-03
 429,     4.4982,     12.198,    2.638067e-03
 430,     4.4894,     14.700,    3.574109e-03
 431,     4.4796,     14.700,    2.074700e-03
 432,     4.4693,     14.700,    3.033468e-03
 433,     4.4597,     14.700,    2.484728e-03
