index,   freq_ppm,   decay_hz, amplitude
   1,     9.0688,     14.700,    3.664262e-03
   2,     9.0549,     14.700,    2.474960e-03
   3,     9.0369,     14.700,    3.327355e-03
   4,     9.0243,     14.700,    3.842672e-03
   5,     9.0001,     14.700,    4.141828e-03
   6,     8.9860,     14.700,    3.548653e-03
   7,     8.9515,     14.700,    3.985877e-03
   8,     8.9346,     14.700,    2.740121e-03
   9,     8.9185,     14.700,    3.224368e-03
  10,     8.9028,     14.700,    2.048479e-03
  11,     8.8700,     14.700,    1.694742e-03
  12,     8.8448,     14.700,    2.781666e-03
  13,     8.8155,     14.700,    2.601822e-03
  14,     8.7928,     14.700,    3.076248e-03
  15,     8.7773,     14.700,    3.767819e-03
  16,     8.7668,     14.700,    1.630058e-03
  17,     8.7529,     14.700,    2.008383e-03
  18,     8.7328,     14.694,    3.682580e-03
  19,     8.7156,     14.700,    3.974533e-03
  20,     8.7035,     14.700,    3.559432e-03
  21,     8.6837,     14.700,    2.666222e-03
  22,     8.6738,     14.700,    3.848884e-03
  23,     8.6635,     14.700,    3.178146e-03
  24,     8.6503,     14.700,    3.342025e-03
  25,     8.6378,     14.700,    2.902735e-03
  26,     8.6064,      6.150,    8.848977e-04
  27,     8.6013,     14.700,    2.493242e-03
  28,     8.5905,      9.031,    1.257333e-03
  29,     8.5802,     10.111,    2.006125e-03
  30,     8.5643,     13.393,    2.408072e-02
  31,     8.5516,     14.700,    4.306164e-03
  32,     8.5429,     14.700,    2.836094e-03
  33,     8.5340,     14.700,    4.299436e-03
  34,     8.5199,      9.665,    1.579591e-03
  35,     8.4473,      6.522,    4.029897e-01
  36,     8.4458,      5.780,    7.998721e-01
  37,     8.4442,      9.196,    5.966977e-01
  38,     8.4396,     14.700,    1.450603e-01
  39,     8.4318,     14.700,    5.104028e-02
  40,     8.4216,     14.700,    3.210819e-02
  41,     8.4084,     14.700,    2.672395e-02
  42,     8.4025,     14.700,    1.245598e-02
  43,     8.3951,     14.700,    6.726845e-03
  44,     8.3877,     14.700,    6.407856e-03
  45,     8.3765,     14.700,    6.043840e-03
  46,     8.3656,     14.700,    3.679980e-03
  47,     8.3562,     14.700,    3.012427e-03
  48,     8.3482,      8.473,    9.587737e-04
  49,     8.3428,     14.700,    3.385807e-03
  50,     8.3287,     10.020,    9.998431e-04
  51,     8.3211,     11.146,    1.691489e-02
  52,     8.3130,     14.700,    2.502379e-03
  53,     8.2991,     14.700,    3.278832e-03
  54,     8.2860,     14.700,    2.486112e-03
  55,     8.2727,     14.700,    3.495454e-03
  56,     8.2659,     14.700,    3.014786e-03
  57,     8.2557,     14.700,    2.592854e-03
  58,     8.2273,     14.700,    2.712750e-03
  59,     8.2123,     14.700,    3.243930e-03
  60,     8.2023,     14.700,    2.647948e-03
  61,     8.1844,     14.700,    1.903204e-03
  62,     8.1640,     14.700,    2.841911e-03
  63,     8.1480,     14.700,    3.132185e-03
  64,     8.1310,     14.700,    4.563809e-03
  65,     8.1210,     14.700,    4.922410e-03
  66,     8.1036,     14.700,    4.671076e-03
  67,     8.0913,     14.700,    4.492005e-03
  68,     8.0787,     14.700,    4.600433e-03
  69,     8.0636,     14.700,    3.358271e-03
  70,     8.0479,     14.700,    2.465787e-03
  71,     8.0313,     14.700,    3.494485e-03
  72,     8.0237,     14.700,    2.993944e-03
  73,     8.0102,     14.700,    3.137500e-03
  74,     8.0017,      3.215,    4.279365e-04
  75,     7.9794,      2.370,    8.290252e-04
  76,     7.9775,     14.565,    4.371519e-02
  77,     7.9692,     14.700,    2.250294e-03
  78,     7.9612,     14.700,    2.238443e-03
  79,     7.9517,     14.700,    4.908087e-03
  80,     7.9424,     14.700,    3.569713e-03
  81,     7.9343,     14.700,    4.601859e-03
  82,     7.9220,     14.700,    5.509357e-03
  83,     7.9106,     14.700,    5.165005e-03
  84,     7.8495,      9.796,    1.083622e+00
  85,     7.8479,      7.417,    8.757759e-01
  86,     7.8462,      8.871,    7.014831e-01
  87,     7.8433,     14.518,    2.667444e-01
  88,     7.8379,     14.700,    8.489627e-02
  89,     7.8294,     14.700,    4.955200e-02
  90,     7.8156,     14.700,    3.428118e-02
  91,     7.7716,     14.700,    4.321580e-03
  92,     7.7624,     14.700,    3.690819e-03
  93,     7.7396,     14.503,    1.126258e-03
  94,     7.7238,     12.170,    2.211644e-03
  95,     7.7143,     14.700,    4.340204e-02
  96,     7.7005,     14.700,    2.936942e-03
  97,     7.6839,     14.700,    3.212536e-03
  98,     7.6751,     14.700,    3.981240e-03
  99,     7.6581,     14.700,    4.389909e-03
 100,     7.6305,     14.700,    2.508486e-03
 101,     7.6250,      7.298,    1.311233e-03
 102,     7.6140,     14.700,    1.435533e-03
 103,     7.6073,     14.700,    2.457873e-03
 104,     7.5959,     14.700,    2.483555e-03
 105,     7.5907,     14.700,    1.483517e-03
 106,     7.5811,     14.700,    4.582828e-03
 107,     7.5669,     14.700,    4.835879e-03
 108,     7.5570,     14.700,    4.639503e-03
 109,     7.5436,     14.700,    4.546550e-03
 110,     7.5328,     14.700,    3.425337e-03
 111,     7.5132,     14.700,    4.186054e-03
 112,     7.5031,     14.700,    2.771197e-03
 113,     7.4910,     14.700,    2.656068e-03
 114,     7.4875,      2.392,    1.462569e-04
 115,     7.4820,     13.213,    3.328872e-03
 116,     7.4742,     13.454,    4.504927e-03
 117,     7.4621,     14.700,    3.349086e-03
 118,     7.4485,     14.700,    2.576842e-03
 119,     7.4413,     14.700,    2.561666e-03
 120,     7.4312,     11.836,    1.513907e-03
 121,     7.4218,     14.700,    2.607676e-03
 122,     7.4125,     14.700,    2.053926e-03
 123,     7.3915,     14.700,    2.908634e-03
 124,     7.3820,     14.700,    1.470954e-03
 125,     7.3720,     14.700,    3.398464e-03
 126,     7.3628,     14.700,    2.975780e-03
 127,     7.3525,     14.700,    3.074358e-03
 128,     7.3415,      7.091,    1.142618e-03
 129,     7.3343,      9.736,    1.494148e-03
 130,     7.3281,     13.383,    3.250718e-03
 131,     7.3222,      5.587,    6.743736e-04
 132,     7.3095,      4.177,    5.424535e-04
 133,     7.3055,     14.700,    3.753962e-03
 134,     7.2951,     14.700,    2.883684e-03
 135,     7.2875,      7.701,    7.659742e-04
 136,     7.2826,     14.700,    3.362740e-03
 137,     7.2736,     14.700,    2.773457e-03
 138,     7.2554,     14.609,    2.373755e-03
 139,     7.2465,      7.522,    7.573598e-04
 140,     7.2352,     14.700,    1.597279e-03
 141,     7.2136,     14.700,    2.162754e-03
 142,     7.1935,     13.618,    4.099937e-02
 143,     7.1868,     14.700,    2.276137e-03
 144,     7.1758,     14.700,    2.365415e-03
 145,     7.1650,     14.700,    2.054292e-03
 146,     7.1515,      5.856,    3.072909e-04
 147,     7.1465,     14.700,    3.333067e-03
 148,     7.1400,     14.700,    4.728622e-03
 149,     7.1323,     13.116,    1.577638e-03
 150,     7.1278,      6.721,    7.048168e-04
 151,     7.0775,      8.583,    8.311234e-01
 152,     7.0758,      7.731,    1.088849e+00
 153,     7.0742,     11.110,    1.313501e+00
 154,     7.0686,     14.700,    1.653348e-01
 155,     7.0601,     14.700,    5.033937e-02
 156,     7.0470,     14.700,    3.216595e-02
 157,     7.0266,     14.700,    2.430902e-02
 158,     7.0006,     14.700,    3.966311e-03
 159,     6.9951,     14.555,    5.017638e-03
 160,     6.9840,     14.700,    3.968830e-03
 161,     6.9743,     14.700,    1.592472e-03
 162,     6.9534,     14.454,    4.268905e-02
 163,     6.9357,     14.700,    2.384733e-03
 164,     6.9287,     14.700,    3.617678e-03
 165,     6.9157,     14.548,    3.324552e-03
 166,     6.9058,     14.700,    2.783824e-03
 167,     6.8928,     14.700,    1.857480e-03
 168,     6.8826,     14.700,    2.876633e-03
 169,     6.8702,     14.700,    2.743331e-03
 170,     6.8590,     14.700,    2.450388e-03
 171,     6.8503,     14.700,    2.822296e-03
 172,     6.8263,     10.856,    1.646435e-03
 173,     6.8170,     14.344,    3.314340e-03
 174,     6.8098,     14.700,    4.549534e-03
 175,     6.8003,     14.700,    4.296716e-03
 176,     6.7911,     14.700,    3.725440e-03
 177,     6.7752,     14.700,    2.702509e-03
 178,     6.7537,     14.700,    3.940693e-03
 179,     6.7376,     14.700,    3.147078e-03
 180,     6.7293,     14.700,    3.329444e-03
 181,     6.7158,     14.700,    3.569968e-03
 182,     6.6999,     14.700,    4.128362e-03
 183,     6.6842,     14.700,    4.133043e-03
 184,     6.6698,     14.700,    2.891709e-03
 185,     6.6554,     14.700,    3.569780e-03
 186,     6.6428,     14.700,    2.154841e-03
 187,     6.6180,     14.700,    3.697940e-03
 188,     6.6004,     14.700,    2.658071e-03
 189,     6.5927,     14.700,    2.970672e-03
 190,     6.5736,     14.700,    3.721529e-03
 191,     6.5497,     14.700,    3.004741e-03
 192,     6.5201,     14.700,    2.778816e-03
 193,     6.5076,     14.700,    3.125140e-03
 194,     6.4950,     14.700,    3.396698e-03
 195,     6.4841,     14.700,    3.898579e-03
 196,     6.4742,     14.700,    1.588931e-03
 197,     6.4581,     14.700,    2.144113e-03
 198,     6.4406,     12.304,    1.606051e-03
 199,     6.4322,     14.700,    2.509568e-03
 200,     6.4213,     14.700,    1.857331e-03
 201,     6.4125,     10.623,    9.288398e-04
 202,     6.4025,     14.700,    2.568200e-03
 203,     6.3939,     14.700,    3.263391e-03
 204,     6.3801,     14.700,    2.412787e-03
 205,     6.3660,     14.700,    5.098303e-03
 206,     6.3443,      7.721,    1.439259e-03
 207,     6.3340,     12.477,    2.211168e-03
 208,     6.3278,     12.053,    1.724881e-03
 209,     6.3239,      0.000,    6.304157e-05
 210,     6.3180,     12.705,    2.968639e-03
 211,     6.3096,     14.642,    1.144642e-03
 212,     6.2947,     14.700,    4.163959e-03
 213,     6.2868,     14.700,    2.248827e-03
 214,     6.2768,     14.700,    2.964436e-03
 215,     6.2604,     14.700,    3.612531e-03
 216,     6.2519,     14.700,    2.635796e-03
 217,     6.2440,     14.700,    2.459289e-03
 218,     6.2258,     14.700,    3.980108e-03
 219,     6.2147,     14.700,    1.976029e-03
 220,     6.1964,     14.700,    2.832673e-03
 221,     6.1892,      7.526,    1.420980e-03
 222,     6.1831,     14.700,    3.212509e-03
 223,     6.1724,     14.700,    3.453684e-03
 224,     6.1679,     12.804,    1.453246e-03
 225,     6.1625,     14.643,    2.634594e-03
 226,     6.1487,     14.700,    4.188251e-03
 227,     6.1399,     14.700,    3.968274e-03
 228,     6.1276,     14.700,    5.667262e-03
 229,     6.1180,     14.700,    3.107664e-03
 230,     6.1101,     14.700,    2.954512e-03
 231,     6.0992,     14.700,    3.128173e-03
 232,     6.0863,     14.700,    3.415427e-03
 233,     6.0769,     14.700,    3.214431e-03
 234,     6.0662,     14.700,    3.919892e-03
 235,     6.0561,     14.700,    3.497885e-03
 236,     6.0448,     14.700,    2.690166e-03
 237,     6.0354,     14.700,    2.359714e-03
 238,     6.0242,     14.700,    3.343131e-03
 239,     6.0122,      9.811,    1.547573e-03
 240,     5.9984,     10.906,    1.872119e-03
 241,     5.9916,      9.228,    1.825701e-03
 242,     5.9846,     14.557,    1.325472e-03
 243,     5.9714,     14.700,    3.084452e-03
 244,     5.9624,     14.700,    2.456752e-03
 245,     5.9521,     14.700,    2.986410e-03
 246,     5.9427,      8.446,    1.132030e-03
 247,     5.9259,     14.496,    2.771499e-03
 248,     5.9105,     14.700,    2.202111e-03
 249,     5.9059,     14.440,    1.978491e-03
 250,     5.8980,     14.015,    2.460337e-03
 251,     5.8909,     14.700,    1.445084e-03
 252,     5.8816,     11.696,    2.297131e-03
 253,     5.8771,      4.652,    9.084860e-04
 254,     5.8638,     14.700,    1.942279e-03
 255,     5.8562,     14.323,    1.699735e-03
 256,     5.8414,     14.616,    2.377076e-03
 257,     5.8327,     13.507,    3.006752e-03
 258,     5.8211,     11.444,    2.428872e-03
 259,     5.8086,     13.285,    3.575623e-03
 260,     5.7972,     13.635,    2.130218e-03
 261,     5.7913,     10.160,    1.392856e-03
 262,     5.7882,      0.000,    2.236136e-04
 263,     5.7864,      1.050,    1.674549e-04
 264,     5.7754,     14.700,    4.764584e-03
 265,     5.7650,      8.167,    7.941328e-04
 266,     5.7584,     14.700,    1.801443e-03
 267,     5.7513,     14.700,    3.403448e-03
 268,     5.7448,     14.700,    3.425514e-03
 269,     5.7321,      8.043,    9.500742e-04
 270,     5.7251,     14.700,    3.259391e-03
 271,     5.7119,     14.700,    2.337157e-03
 272,     5.7034,      7.167,    1.132805e-03
 273,     5.6969,     14.090,    1.694946e-03
 274,     5.6859,     14.700,    2.936743e-03
 275,     5.6673,     14.700,    1.556059e-03
 276,     5.6551,     14.700,    2.409960e-03
 277,     5.6424,     14.700,    2.609508e-03
 278,     5.6337,     12.299,    2.900726e-03
 279,     5.6175,     14.700,    3.011313e-03
 280,     5.6085,     14.700,    3.309518e-03
 281,     5.5949,     13.794,    2.194687e-03
 282,     5.5855,      6.101,    7.589196e-04
 283,     5.5821,      3.889,    7.619360e-04
 284,     5.5741,     14.700,    3.005257e-03
 285,     5.5648,     13.847,    2.726167e-03
 286,     5.5562,      0.000,    1.187309e-04
 287,     5.5477,     14.700,    1.548440e-03
 288,     5.5433,      6.166,    8.289070e-04
 289,     5.5317,     12.893,    2.524365e-03
 290,     5.5241,      6.567,    1.197556e-03
 291,     5.5198,      3.882,    5.974596e-04
 292,     5.5110,     11.678,    1.880104e-02
 293,     5.5083,     10.238,    8.706608e-03
 294,     5.5058,     14.281,    2.854928e-02
 295,     5.4841,     14.700,    2.665297e-03
 296,     5.4735,     14.700,    3.987019e-03
 297,     5.4672,     14.700,    6.268458e-03
 298,     5.4555,     14.700,    3.463806e-03
 299,     5.4097,      8.249,    4.269664e-01
 300,     5.4079,      5.362,    9.792830e-01
 301,     5.4064,      5.090,    1.093070e+00
 302,     5.4044,      6.848,    7.862192e-01
 303,     5.4023,      7.385,    1.009583e+00
 304,     5.4016,     13.839,    3.026293e+00
 305,     5.3927,     14.700,    8.696879e-02
 306,     5.2985,     14.700,    2.693979e-02
 307,     5.2935,     14.700,    2.665034e-02
 308,     5.2850,     14.700,    3.147284e-03
 309,     5.2715,     14.700,    3.316855e-03
 310,     5.2552,     14.700,    4.735194e-03
 311,     5.2304,     14.700,    4.582891e-03
 312,     5.2084,     14.700,    3.806661e-03
 313,     5.1940,     14.700,    1.873696e-03
 314,     5.1813,     11.965,    1.095475e-03
 315,     5.1705,      8.780,    1.168335e-03
 316,     5.1636,     10.387,    1.309959e-03
 317,     5.1571,      2.291,    2.432928e-04
 318,     5.1548,     13.456,    2.597590e-03
 319,     5.1496,      9.958,    2.121306e-03
 320,     5.1449,      2.380,    2.730795e-04
 321,     5.1384,     14.700,    3.466292e-03
 322,     5.1319,      9.561,    2.059713e-03
 323,     5.1239,      9.280,    2.901464e-03
 324,     5.1104,     12.324,    2.485331e-03
 325,     5.1055,     14.700,    1.589821e-03
 326,     5.0947,      1.670,    2.988842e-04
 327,     5.0890,     14.700,    3.205963e-03
 328,     5.0811,      9.645,    1.373229e-03
 329,     5.0704,     14.431,    3.052990e-03
 330,     5.0648,     11.580,    1.705829e-03
 331,     5.0535,     14.700,    4.281387e-03
 332,     5.0384,     14.700,    3.025507e-03
 333,     5.0272,     14.700,    4.106070e-03
 334,     5.0065,     14.700,    4.092664e-03
 335,     4.9900,     14.700,    3.882535e-03
 336,     4.9729,     14.700,    4.472018e-03
 337,     4.9461,     14.700,    3.573817e-03
 338,     4.9359,     14.700,    3.911429e-03
 339,     4.9248,     14.700,    2.891433e-03
 340,     4.9141,     14.700,    3.866900e-03
 341,     4.8972,     14.700,    3.616577e-03
 342,     4.8780,     14.700,    3.643398e-03
 343,     4.8695,     14.700,    3.852230e-03
 344,     4.8580,     14.700,    2.510783e-03
 345,     4.8410,     14.700,    4.086553e-03
 346,     4.8315,     14.700,    2.494935e-03
 347,     4.8134,     14.700,    3.498439e-03
 348,     4.8028,     14.700,    5.818770e-03
 349,     4.7984,     14.700,    4.780710e-03
 350,     4.7882,     12.008,    8.595652e-03
 351,     4.7816,      4.790,    4.185323e-03
 352,     4.7791,      3.522,    1.145248e-02
 353,     4.7624,     14.700,    1.017054e-02
 354,     4.7527,     14.700,    9.010348e-03
 355,     4.7395,     14.700,    8.508517e-03
 356,     4.7177,     14.700,    7.197004e-03
 357,     4.6875,     14.700,    8.475714e-03
 358,     4.6717,     14.700,    6.905880e-03
 359,     4.6331,     14.700,    2.762520e-03
 360,     4.6027,     14.700,    3.889108e-03
 361,     4.5894,     14.700,    1.573323e-02
 362,     4.5840,     12.982,    1.551406e-02
 363,     4.5775,     12.505,    2.283224e-02
 364,     4.5720,     12.684,    2.153175e-02
 365,     4.5657,     13.254,    1.102617e-02
 366,     4.5605,     10.353,    6.756005e-03
 367,     4.5581,     14.572,    4.821748e-03
 368,     4.5490,     10.394,    2.404434e-03
 369,     4.5417,      9.483,    1.278863e-03
 370,     4.5323,     14.700,    1.662167e-03
 371,     4.5232,     14.700,    4.118527e-03
 372,     4.5120,     14.700,    3.871235e-03
 373,     4.4999,     14.700,    2.046100e-03
 374,     4.4892,     14.700,    3.358371e-03
 375,     4.4779,     14.700,    4.522000e-03
 376,     4.4554,     14.700,    3.161836e-03
 377,     4.4328,     14.700,    2.610906e-03
 378,     4.4161,     14.700,    4.080060e-03
 379,     4.3905,     14.700,    3.533620e-03
 380,     4.3731,     14.700,    3.950932e-03
 381,     4.3592,     14.700,    4.703986e-03
 382,     4.3462,     14.700,    2.882293e-03
 383,     4.3381,     14.700,    3.594662e-03
 384,     4.3278,     14.700,    3.291437e-03
 385,     4.3165,     14.700,    6.934801e-03
 386,     4.3028,     14.700,    2.994417e-02
 387,     4.2920,     12.313,    2.330104e-02
 388,     4.2771,     14.700,    2.771293e-03
 389,     4.2661,     14.700,    4.650406e-03
 390,     4.2540,     14.700,    5.745387e-03
 391,     4.2159,      8.475,    7.705497e-01
 392,     4.2145,      7.028,    1.219045e+00
 393,     4.2130,     10.008,    7.042726e-01
 394,     4.2041,      9.556,    1.375085e+00
 395,     4.2033,     11.321,    2.095076e+00
 396,     4.1955,     14.700,    4.590831e-02
 397,     4.1770,     14.700,    1.145081e-02
 398,     4.1444,      5.853,    4.795088e-03
 399,     4.1334,      8.891,    1.361527e-02
 400,     4.1221,     11.316,    2.593468e-02
 401,     4.1182,     10.526,    6.406487e-04
 402,     4.0555,     11.154,    1.885590e+00
 403,     4.0517,      8.998,    1.882687e-01
 404,     4.0448,     11.168,    3.626300e+00
 405,     4.0340,     10.720,    1.757276e+00
 406,     3.9873,     10.311,    1.216532e+00
 407,     3.9834,      3.634,    2.367733e-01
 408,     3.9812,      7.090,    8.244129e-01
 409,     3.9778,     12.176,    1.796741e+00
 410,     3.9715,     11.579,    1.464050e+00
 411,     3.8954,     11.040,    8.085682e-01
 412,     3.8911,     11.987,    9.212118e-01
 413,     3.8868,     12.554,    1.411303e+00
 414,     3.8834,     11.441,    1.257626e+00
 415,     3.8807,     11.512,    1.059173e+00
 416,     3.8764,     11.431,    1.042096e+00
 417,     3.8735,     14.679,    1.443436e+00
 418,     3.8438,     14.447,    2.487452e+00
 419,     3.8392,     14.700,    1.414943e+00
 420,     3.8312,     14.700,    3.049347e+00
 421,     3.8269,      9.947,    1.693997e+00
 422,     3.8155,      9.469,    3.203796e+00
 423,     3.8129,     10.122,    3.926238e+00
 424,     3.8104,     12.575,    1.290919e+01
 425,     3.8057,     14.328,    1.186105e+01
 426,     3.7894,      4.214,    1.492889e-01
 427,     3.7679,     11.504,    1.684653e+00
 428,     3.7606,      6.360,    1.280333e-01
 429,     3.7558,     13.935,    3.983646e+00
 430,     3.7439,     10.599,    1.640717e+00
 431,     3.6867,      8.587,    3.777428e-01
 432,     3.6715,     10.995,    7.430356e+00
 433,     3.6701,      6.789,    3.042663e+00
