index,   freq_ppm,   decay_hz, amplitude
   1,     9.0549,     14.678,    7.120450e-03
   2,     9.0421,     14.686,    9.617424e-03
   3,     9.0222,     14.672,    8.430634e-03
   4,     9.0113,     14.535,    4.962285e-03
   5,     8.9977,     13.150,    5.460328e-03
   6,     8.9864,     13.598,    5.530100e-03
   7,     8.9753,     14.680,    7.389244e-03
   8,     8.9550,      5.137,    1.637904e-03
   9,     8.9320,      8.206,    3.993088e-02
  10,     8.9301,      8.452,    4.002793e-02
  11,     8.9280,     12.797,    9.466299e-02
  12,     8.9205,     10.057,    6.585894e-03
  13,     8.9149,      7.252,    4.551745e-03
  14,     8.9088,     14.700,    9.257357e-03
  15,     8.9014,     14.700,    4.833823e-03
  16,     8.8900,     14.700,    8.056068e-03
  17,     8.8776,     14.700,    8.596399e-03
  18,     8.8688,      5.444,    3.343554e-03
  19,     8.8620,      7.180,    4.493329e-03
  20,     8.8562,      5.953,    3.198700e-03
  21,     8.8498,      5.504,    3.442942e-03
  22,     8.8435,      6.293,    3.123053e-03
  23,     8.8382,      8.666,    3.371340e-03
  24,     8.8326,      6.974,    3.080565e-03
  25,     8.8268,      4.625,    2.615075e-03
  26,     8.8208,      6.651,    3.622442e-03
  27,     8.8146,      8.253,    5.050493e-03
  28,     8.8101,      9.453,    4.526921e-03
  29,     8.8039,      5.582,    3.296648e-03
  30,     8.7974,      6.054,    3.449773e-03
  31,     8.7916,      4.955,    3.204159e-03
  32,     8.7856,      5.379,    2.421342e-03
  33,     8.7787,     14.501,    4.103983e-03
  34,     8.7716,     14.700,    4.938807e-03
  35,     8.7631,     14.700,    5.244989e-03
  36,     8.7522,     14.700,    4.972479e-03
  37,     8.7071,     11.801,    8.690849e-02
  38,     8.7045,      8.068,    4.112396e-02
  39,     8.7024,      7.911,    3.401081e-02
  40,     8.6995,     14.700,    1.350376e-01
  41,     8.6867,     14.700,    1.208967e-02
  42,     8.6711,     14.700,    8.288356e-03
  43,     8.6366,     14.700,    5.444982e-03
  44,     8.6274,     14.700,    5.695700e-03
  45,     8.6120,     14.700,    5.967082e-03
  46,     8.5992,     14.700,    4.980499e-03
  47,     8.5924,      5.074,    2.028364e-03
  48,     8.5852,     12.073,    5.742216e-03
  49,     8.5730,      7.786,    3.287552e-03
  50,     8.5650,     14.700,    9.410644e-03
  51,     8.5481,     14.700,    6.045308e-03
  52,     8.5335,     14.700,    5.352832e-03
  53,     8.5208,     14.700,    5.362179e-03
  54,     8.5092,     14.700,    1.789004e-02
  55,     8.4853,     14.700,    1.442911e-02
  56,     8.4482,      2.787,    2.097237e-02
  57,     8.4462,      5.526,    1.256595e-01
  58,     8.4450,     11.101,    2.665913e-01
  59,     8.4370,     14.700,    3.624926e-02
  60,     8.4229,     14.700,    2.647242e-02
  61,     8.4167,      4.730,    5.682201e-03
  62,     8.4074,     14.700,    9.982752e-03
  63,     8.3912,     14.700,    8.656269e-03
  64,     8.3713,     14.700,    7.784035e-03
  65,     8.3529,     14.700,    6.075183e-03
  66,     8.3390,     14.700,    8.458279e-03
  67,     8.3201,     14.700,    9.617567e-03
  68,     8.2471,      7.722,    2.681696e-02
  69,     8.2448,      8.453,    4.604346e-02
  70,     8.2424,     11.960,    5.980195e-02
  71,     8.2359,     14.700,    9.505218e-02
  72,     8.2330,     14.700,    7.740484e-02
  73,     8.2081,     14.700,    9.733247e-03
  74,     8.1701,     14.700,    7.564619e-03
  75,     8.1595,     13.784,    7.437548e-03
  76,     8.1531,     11.467,    3.386857e-03
  77,     8.1480,      9.268,    3.221314e-03
  78,     8.1403,     14.700,    6.771127e-03
  79,     8.1314,      8.443,    4.388704e-03
  80,     8.1247,     11.600,    5.999827e-03
  81,     8.1176,      4.148,    2.821124e-03
  82,     8.1116,      6.255,    5.180485e-03
  83,     8.1027,     14.700,    7.679825e-03
  84,     8.0928,     14.700,    5.958974e-03
  85,     8.0838,     14.700,    8.837988e-03
  86,     8.0737,     14.700,    6.781238e-03
  87,     8.0631,     14.700,    7.992693e-03
  88,     8.0453,     14.700,    8.070943e-03
  89,     8.0323,     14.700,    6.645542e-03
  90,     8.0165,     14.700,    6.067742e-03
  91,     8.0100,      5.623,    1.623840e-03
  92,     7.9981,     14.700,    5.688818e-03
  93,     7.9877,     14.700,    4.496333e-03
  94,     7.9752,     14.700,    5.466218e-03
  95,     7.9629,      5.444,    2.265627e-03
  96,     7.9576,      3.532,    1.158815e-03
  97,     7.9512,      9.356,    3.502998e-03
  98,     7.9434,      7.271,    2.829296e-03
  99,     7.9394,      6.238,    1.149300e-03
 100,     7.9305,     14.700,    6.275330e-03
 101,     7.9092,     14.700,    6.484152e-03
 102,     7.8938,     14.700,    7.001462e-03
 103,     7.8693,     14.700,    9.518518e-03
 104,     7.8567,     14.700,    1.182132e-02
 105,     7.8272,     14.700,    8.011227e-03
 106,     7.8076,     14.700,    7.194741e-03
 107,     7.7883,      8.096,    3.364121e-03
 108,     7.7764,     13.886,    5.183246e-03
 109,     7.7694,      3.036,    1.438832e-03
 110,     7.7643,      6.230,    1.595560e-03
 111,     7.7582,     14.700,    6.314959e-03
 112,     7.7495,      6.594,    2.278336e-03
 113,     7.7435,      6.083,    2.114257e-03
 114,     7.7354,     10.867,    4.404344e-03
 115,     7.7297,      5.107,    9.357087e-04
 116,     7.7221,     14.700,    4.760170e-03
 117,     7.7102,     14.700,    5.868836e-03
 118,     7.6954,     14.700,    6.851566e-03
 119,     7.6864,      8.744,    4.054804e-03
 120,     7.6802,      6.889,    3.621835e-03
 121,     7.6687,      3.490,    1.344752e-03
 122,     7.6667,      3.875,    1.650500e-03
 123,     7.6616,      3.874,    2.231010e-03
 124,     7.6560,      5.701,    2.578141e-03
 125,     7.6485,     12.317,    6.471957e-03
 126,     7.6414,      7.133,    2.646315e-03
 127,     7.6357,      9.735,    5.677077e-03
 128,     7.6280,      7.680,    3.921510e-03
 129,     7.6224,      3.722,    1.772121e-03
 130,     7.5949,      7.558,    2.425784e-02
 131,     7.5931,     10.176,    5.323159e-02
 132,     7.5875,     12.658,    8.409949e-02
 133,     7.5841,     13.574,    9.832542e-02
 134,     7.5776,     14.629,    1.108352e-01
 135,     7.5698,      4.895,    4.014004e-03
 136,     7.5641,      9.518,    9.568362e-03
 137,     7.5538,     14.700,    8.675716e-03
 138,     7.5449,     14.700,    7.490547e-03
 139,     7.5330,     14.700,    8.568870e-03
 140,     7.5244,      8.114,    5.079190e-03
 141,     7.5150,     14.700,    4.835581e-03
 142,     7.5036,     14.700,    4.419898e-03
 143,     7.4906,     14.700,    4.692320e-03
 144,     7.4817,     13.978,    7.697294e-03
 145,     7.4712,     14.700,    1.160488e-02
 146,     7.4614,     14.700,    6.028499e-03
 147,     7.4459,     14.700,    5.313723e-03
 148,     7.4325,     14.700,    5.149564e-03
 149,     7.4018,     14.700,    6.029747e-03
 150,     7.3909,     14.700,    4.110278e-03
 151,     7.3824,     14.700,    3.948573e-03
 152,     7.3723,      7.873,    3.552001e-03
 153,     7.3660,     14.700,    6.198711e-03
 154,     7.3541,      9.057,    4.266275e-03
 155,     7.3487,      3.266,    1.994741e-03
 156,     7.3363,     14.700,    7.534843e-03
 157,     7.3153,     14.700,    7.149940e-03
 158,     7.2937,     14.700,    7.551383e-03
 159,     7.2808,     14.700,    6.153667e-03
 160,     7.2645,     14.700,    6.004164e-03
 161,     7.2455,     14.700,    6.375635e-03
 162,     7.2238,     14.700,    5.996607e-03
 163,     7.2181,      6.072,    3.077219e-03
 164,     7.2115,      8.625,    3.791476e-03
 165,     7.2051,      5.816,    3.034950e-03
 166,     7.1942,     14.700,    3.847528e-03
 167,     7.1880,     14.700,    3.642926e-03
 168,     7.1769,      7.653,    3.092112e-03
 169,     7.1662,     14.700,    6.689328e-03
 170,     7.1544,      6.284,    3.823366e-03
 171,     7.1429,     14.700,    3.850208e-03
 172,     7.1251,     14.700,    5.136213e-03
 173,     7.1066,     14.700,    5.154954e-03
 174,     7.0799,     14.700,    8.597323e-03
 175,     7.0536,     14.700,    4.560727e-03
 176,     7.0421,     14.700,    6.208021e-03
 177,     7.0356,     13.139,    5.066662e-03
 178,     7.0241,     14.700,    7.138045e-03
 179,     7.0113,     14.700,    4.653322e-03
 180,     7.0013,     14.700,    4.550858e-03
 181,     6.9921,      3.008,    1.953085e-03
 182,     6.9860,     14.700,    4.539257e-03
 183,     6.9745,     14.700,    7.864587e-03
 184,     6.9578,     14.700,    8.790167e-03
 185,     6.9343,     14.700,    6.967850e-03
 186,     6.9214,     14.700,    5.567785e-03
 187,     6.9040,     14.700,    6.492675e-03
 188,     6.8852,     14.700,    7.355235e-03
 189,     6.8684,     14.700,    8.114869e-03
 190,     6.8617,      6.697,    2.415472e-03
 191,     6.8555,      8.233,    2.654386e-03
 192,     6.8499,      7.399,    3.950343e-03
 193,     6.8434,      2.017,    1.062301e-03
 194,     6.8369,     14.700,    6.590151e-03
 195,     6.8253,      7.100,    2.692771e-03
 196,     6.8181,     14.071,    6.000692e-03
 197,     6.8113,      5.803,    2.218235e-03
 198,     6.8052,      6.148,    2.405873e-03
 199,     6.7996,      5.148,    2.202280e-03
 200,     6.7928,     14.700,    6.041655e-03
 201,     6.7835,     14.700,    4.829368e-03
 202,     6.7760,      4.918,    2.854555e-03
 203,     6.7706,      4.506,    2.733780e-03
 204,     6.7613,     14.700,    6.743360e-03
 205,     6.7461,     14.700,    7.562050e-03
 206,     6.7252,     14.700,    6.022488e-03
 207,     6.7148,     14.700,    5.817818e-03
 208,     6.7007,     14.700,    7.150399e-03
 209,     6.6869,     14.700,    6.402023e-03
 210,     6.6743,     14.700,    6.511299e-03
 211,     6.6604,     14.700,    5.727102e-03
 212,     6.6453,     14.700,    4.860968e-03
 213,     6.6337,     14.700,    6.064673e-03
 214,     6.6182,     14.700,    5.275460e-03
 215,     6.6036,     14.700,    5.452099e-03
 216,     6.5879,     14.700,    6.364542e-03
 217,     6.5746,     14.700,    5.122018e-03
 218,     6.5658,     14.700,    6.634375e-03
 219,     6.5473,     14.700,    6.403496e-03
 220,     6.5400,     14.700,    3.996597e-03
 221,     6.5247,     14.700,    6.108043e-03
 222,     6.5061,     14.700,    5.120453e-03
 223,     6.4973,     14.700,    4.332755e-03
 224,     6.4873,     14.700,    5.884620e-03
 225,     6.4756,     14.700,    4.919753e-03
 226,     6.4624,     14.700,    3.734443e-03
 227,     6.4499,      9.640,    2.772959e-03
 228,     6.4425,     14.700,    3.715840e-03
 229,     6.4306,      4.224,    1.932293e-03
 230,     6.4240,      6.545,    2.978746e-03
 231,     6.4187,      5.522,    2.749663e-03
 232,     6.4113,      4.935,    2.679916e-03
 233,     6.3886,     14.700,    4.932755e-03
 234,     6.3761,     14.700,    5.543629e-03
 235,     6.3604,     14.700,    6.804020e-03
 236,     6.3416,     14.700,    5.214117e-03
 237,     6.3141,     14.700,    5.569484e-03
 238,     6.2961,     14.700,    4.567279e-03
 239,     6.2858,     14.700,    9.113637e-03
 240,     6.2709,     14.700,    1.003617e-02
 241,     6.2493,     14.700,    1.055919e-02
 242,     6.2331,     14.700,    1.016597e-02
 243,     6.2049,     14.700,    1.044549e-02
 244,     6.1811,     14.700,    9.798560e-03
 245,     6.1623,     14.700,    9.838756e-03
 246,     6.1403,     14.700,    6.087262e-03
 247,     6.1292,     14.700,    5.482343e-03
 248,     6.1180,     14.700,    6.713621e-03
 249,     6.1068,      6.668,    4.123677e-03
 250,     6.1007,      3.694,    2.626473e-03
 251,     6.0942,     14.700,    6.342660e-03
 252,     6.0838,     14.700,    5.656816e-03
 253,     6.0720,     14.700,    5.776817e-03
 254,     6.0632,     14.700,    5.654542e-03
 255,     6.0548,      7.428,    3.361346e-03
 256,     6.0491,      8.891,    3.627008e-03
 257,     6.0429,      4.881,    2.185867e-03
 258,     6.0376,      8.057,    2.531576e-03
 259,     6.0325,      6.591,    3.344226e-03
 260,     6.0265,      4.098,    2.279995e-03
 261,     6.0204,      8.873,    4.248564e-03
 262,     6.0139,      6.879,    3.523217e-03
 263,     6.0082,      4.831,    3.065821e-03
 264,     6.0020,      6.570,    3.377324e-03
 265,     5.9933,     14.700,    6.404954e-03
 266,     5.9835,     14.700,    4.769387e-03
 267,     5.9731,     14.700,    6.739251e-03
 268,     5.9584,     14.700,    4.825016e-03
 269,     5.9490,     14.700,    6.118637e-03
 270,     5.9373,     14.700,    7.357412e-03
 271,     5.9168,     14.700,    6.686869e-03
 272,     5.9104,     14.700,    7.106963e-03
 273,     5.8993,     14.700,    1.003572e-02
 274,     5.8873,      4.958,    3.479267e-03
 275,     5.8812,      6.440,    3.947380e-03
 276,     5.8753,      8.175,    5.054681e-03
 277,     5.8690,      8.257,    4.833179e-03
 278,     5.8632,      7.376,    3.194710e-03
 279,     5.8567,     14.700,    6.186890e-03
 280,     5.8465,      7.192,    4.394198e-03
 281,     5.8390,     14.700,    6.640903e-03
 282,     5.8283,      8.420,    3.988266e-03
 283,     5.8219,      3.715,    3.128159e-03
 284,     5.8172,      0.000,    8.521952e-04
 285,     5.8156,      1.001,    1.040664e-03
 286,     5.8094,      9.871,    4.595906e-03
 287,     5.8026,     14.700,    5.068760e-03
 288,     5.7939,     14.700,    5.760512e-03
 289,     5.7863,      4.749,    2.306282e-03
 290,     5.7812,      9.454,    5.141626e-03
 291,     5.7753,      5.820,    3.576357e-03
 292,     5.7685,      6.428,    4.031883e-03
 293,     5.7593,     14.700,    7.146649e-03
 294,     5.7512,      4.593,    2.832529e-03
 295,     5.7457,     14.700,    6.720042e-03
 296,     5.7392,      8.942,    3.746808e-03
 297,     5.7337,      4.912,    2.872355e-03
 298,     5.7274,     14.700,    7.955096e-03
 299,     5.7063,     14.700,    6.983919e-03
 300,     5.6882,     14.700,    7.162091e-03
 301,     5.6600,     14.700,    7.462767e-03
 302,     5.6316,     14.700,    6.894855e-03
 303,     5.6088,     14.700,    7.905263e-03
 304,     5.5928,     14.700,    5.472973e-03
 305,     5.5861,      8.663,    2.964842e-03
 306,     5.5807,      6.231,    2.705782e-03
 307,     5.5746,      4.838,    2.326792e-03
 308,     5.5681,      8.922,    3.412798e-03
 309,     5.5629,      4.900,    2.614896e-03
 310,     5.5455,     14.700,    7.087324e-03
 311,     5.5287,     14.700,    6.650076e-03
 312,     5.5146,     14.700,    7.073649e-03
 313,     5.4983,     14.700,    7.318222e-03
 314,     5.4678,     14.700,    6.576791e-03
 315,     5.4427,     14.700,    6.379953e-03
 316,     5.4225,     14.700,    6.919640e-03
 317,     5.4118,     14.700,    4.753262e-03
 318,     5.3996,     14.700,    4.814676e-03
 319,     5.3835,     14.700,    5.501883e-03
 320,     5.3612,     14.700,    5.310711e-03
 321,     5.3362,     14.700,    5.120623e-03
 322,     5.3268,     14.611,    5.172295e-03
 323,     5.3108,     14.700,    5.539467e-03
 324,     5.3002,     14.700,    3.339905e-03
 325,     5.2934,     14.700,    3.526424e-03
 326,     5.2812,     14.700,    5.124554e-03
 327,     5.2663,     14.700,    4.164359e-03
 328,     5.2522,     14.700,    5.088924e-03
 329,     5.2362,     10.057,    4.648271e-03
 330,     5.2295,      7.685,    4.270596e-03
 331,     5.2203,     14.700,    7.448084e-03
 332,     5.2130,     11.007,    4.075118e-03
 333,     5.2057,     14.700,    5.044771e-03
 334,     5.1949,      4.119,    1.995852e-03
 335,     5.1884,      8.353,    3.555410e-03
 336,     5.1811,      7.250,    4.958202e-03
 337,     5.1761,      6.206,    2.726930e-03
 338,     5.1696,     14.700,    9.663392e-03
 339,     5.1571,     14.700,    7.444184e-03
 340,     5.1406,     14.700,    9.285390e-03
 341,     5.1130,     14.700,    9.219050e-03
 342,     5.0996,     14.700,    8.553601e-03
 343,     5.0816,     14.700,    8.263950e-03
 344,     5.0679,     14.700,    7.726631e-03
 345,     5.0604,     14.678,    8.821608e-03
 346,     5.0480,     14.632,    6.773860e-03
 347,     5.0357,     14.668,    6.329258e-03
 348,     5.0239,     14.676,    7.690416e-03
 349,     5.0069,     14.663,    6.462067e-03
 350,     4.9965,     14.654,    5.878305e-03
 351,     4.9836,     14.661,    7.535908e-03
 352,     4.9676,     14.700,    1.294208e-02
 353,     4.9535,     14.700,    1.126933e-02
 354,     4.9344,     14.700,    1.330436e-02
 355,     4.9160,     14.700,    1.494847e-02
 356,     4.8997,     14.700,    1.145694e-02
 357,     4.8885,     14.700,    9.789359e-03
 358,     4.8764,     14.700,    1.145370e-02
 359,     4.8708,      5.412,    4.374605e-03
 360,     4.8649,      3.932,    4.658926e-03
 361,     4.8596,      5.109,    3.917359e-03
 362,     4.8491,     14.700,    2.721069e-02
 363,     4.8405,     14.700,    2.920310e-02
 364,     4.8301,     14.700,    3.025303e-02
 365,     4.8192,     14.700,    3.151283e-02
 366,     4.8071,     14.700,    3.209428e-02
 367,     4.7959,     14.700,    3.537624e-02
 368,     4.7910,     14.700,    2.329009e-02
 369,     4.7789,     14.457,    2.706097e-02
 370,     4.7733,      3.000,    1.026702e-02
 371,     4.7670,      6.423,    1.857282e-02
 372,     4.7616,     14.292,    3.605964e-02
 373,     4.7567,      9.946,    1.293980e-02
 374,     4.7544,      9.428,    1.073409e-02
 375,     4.7496,     12.275,    2.301996e-02
 376,     4.7441,     10.084,    1.610375e-02
 377,     4.7380,      5.083,    4.429711e-03
 378,     4.7327,      5.037,    2.991629e-03
 379,     4.7260,     14.700,    5.287662e-03
 380,     4.7172,     14.700,    4.652170e-03
 381,     4.7029,     14.700,    6.448899e-03
 382,     4.6903,     14.700,    5.673105e-03
 383,     4.6798,     14.700,    5.623469e-03
 384,     4.6613,     14.700,    5.792058e-03
 385,     4.6429,     14.700,    5.677620e-03
 386,     4.6331,     14.700,    4.915725e-03
 387,     4.6232,     14.700,    5.171172e-03
 388,     4.6132,     14.700,    4.890255e-03
 389,     4.6009,     14.700,    5.785311e-03
 390,     4.5884,     14.700,    5.271649e-03
 391,     4.5812,     14.700,    4.112892e-03
 392,     4.5706,      9.718,    4.020555e-03
 393,     4.5583,     14.700,    6.541669e-03
 394,     4.5214,     14.700,    5.991501e-03
 395,     4.5080,     14.700,    7.618124e-03
 396,     4.4779,     14.700,    5.436346e-03
 397,     4.4594,     14.700,    6.872693e-03
 398,     4.4431,     14.700,    6.365017e-03
 399,     4.4256,     14.700,    5.293619e-03
 400,     4.4193,      8.474,    1.750115e-03
 401,     4.4137,     14.700,    5.616020e-03
 402,     4.4034,      7.284,    2.795483e-03
 403,     4.3979,      6.384,    2.893890e-03
 404,     4.3910,     14.700,    7.377653e-03
 405,     4.3665,     14.700,    7.836943e-03
 406,     4.3468,     14.700,    7.681221e-03
 407,     4.3296,     14.700,    6.629134e-03
 408,     4.3179,     14.700,    7.371449e-03
 409,     4.2972,     14.700,    8.150226e-03
 410,     4.2738,     14.700,    7.900205e-03
 411,     4.2644,     14.700,    5.829843e-03
 412,     4.2522,     14.700,    6.716826e-03
 413,     4.2325,     14.700,    6.423506e-03
 414,     4.2163,     14.700,    4.690551e-03
 415,     4.2054,     14.700,    5.051792e-03
 416,     4.1761,     14.700,    6.074215e-03
 417,     4.1575,     14.700,    1.022635e-02
 418,     4.1469,     14.700,    6.480740e-03
 419,     4.1325,     14.700,    6.705831e-03
 420,     4.1157,     14.700,    7.561373e-03
 421,     4.1002,     14.700,    8.602855e-03
 422,     4.0890,     14.700,    6.600357e-03
 423,     4.0776,     14.700,    6.175670e-03
 424,     4.0715,      5.437,    2.864690e-03
 425,     4.0644,      5.130,    4.456858e-03
 426,     4.0587,      8.558,    8.339657e-03
 427,     4.0539,     14.700,    1.491548e-02
 428,     4.0482,     14.700,    1.318177e-02
 429,     4.0411,     14.700,    8.251069e-03
 430,     4.0355,      6.532,    2.597871e-03
 431,     4.0296,      5.506,    2.278967e-03
 432,     4.0237,      4.642,    2.495484e-03
 433,     4.0174,      6.964,    2.771204e-03
