index,   freq_ppm,   decay_hz, amplitude
   1,     9.0816,     14.700,    4.229529e-03
   2,     9.0724,     14.700,    3.748872e-03
   3,     9.0551,     14.700,    3.113639e-03
   4,     9.0474,     14.700,    4.640679e-03
   5,     9.0367,     13.956,    3.013860e-03
   6,     9.0290,      5.981,    1.599482e-03
   7,     9.0223,     14.700,    4.571642e-03
   8,     9.0130,      8.751,    1.455588e-03
   9,     9.0048,     14.700,    5.419867e-03
  10,     8.9946,     14.700,    3.101396e-03
  11,     8.9864,     14.700,    4.044154e-03
  12,     8.9693,     13.419,    4.632829e-03
  13,     8.9612,     12.957,    4.185127e-03
  14,     8.9527,     13.243,    4.235999e-03
  15,     8.9452,     13.682,    4.686629e-03
  16,     8.9346,     14.285,    6.215331e-03
  17,     8.9180,     14.201,    5.145940e-03
  18,     8.9035,     14.078,    4.846372e-03
  19,     8.8822,     14.700,    4.003104e-03
  20,     8.8660,     14.700,    3.956983e-03
  21,     8.8406,     14.700,    3.895104e-03
  22,     8.8221,     14.700,    4.377206e-03
  23,     8.7907,     14.700,    4.342950e-03
  24,     8.7641,     14.700,    4.722406e-03
  25,     8.7407,     14.700,    4.069700e-03
  26,     8.7143,     14.700,    2.827413e-03
  27,     8.6999,     14.700,    2.145391e-03
  28,     8.6935,     14.700,    2.913063e-03
  29,     8.6742,     14.700,    3.293951e-03
  30,     8.6460,     14.700,    2.761445e-03
  31,     8.6356,     14.700,    4.162921e-03
  32,     8.6263,     14.700,    1.835705e-03
  33,     8.6159,     14.700,    3.268339e-03
  34,     8.6046,     14.700,    2.667608e-03
  35,     8.5908,      6.001,    1.504028e-03
  36,     8.5820,     14.700,    3.142877e-03
  37,     8.5728,     10.499,    3.020665e-03
  38,     8.5641,     10.658,    7.132433e-03
  39,     8.5535,     14.700,    4.139895e-03
  40,     8.5450,     10.338,    3.020735e-03
  41,     8.5338,     14.158,    5.796769e-03
  42,     8.5230,     13.707,    5.388774e-03
  43,     8.5152,     13.100,    4.054105e-03
  44,     8.5071,     13.700,    4.937977e-03
  45,     8.4968,     13.668,    3.742885e-03
  46,     8.4815,     14.389,    5.155852e-03
  47,     8.4464,      7.436,    2.527933e-01
  48,     8.4450,      6.837,    2.094675e-01
  49,     8.4428,     11.446,    8.108634e-02
  50,     8.4371,     14.700,    3.447733e-02
  51,     8.4288,     14.700,    1.546751e-02
  52,     8.4190,     14.700,    1.347086e-02
  53,     8.4065,     14.700,    1.224051e-02
  54,     8.3953,     14.700,    5.068174e-03
  55,     8.3876,     14.700,    4.338266e-03
  56,     8.3771,     14.700,    4.241005e-03
  57,     8.3680,     14.700,    4.277095e-03
  58,     8.3450,     14.700,    5.375903e-03
  59,     8.3304,     14.700,    3.925198e-03
  60,     8.3199,     14.700,    1.047921e-02
  61,     8.3058,     14.700,    3.067166e-03
  62,     8.2942,     14.700,    3.877727e-03
  63,     8.2824,     14.700,    3.965413e-03
  64,     8.2696,     14.700,    4.861040e-03
  65,     8.2530,     14.700,    4.282388e-03
  66,     8.2441,     14.700,    5.664885e-03
  67,     8.2279,     14.700,    4.363930e-03
  68,     8.2174,     14.700,    2.950458e-03
  69,     8.2055,     10.591,    2.498078e-03
  70,     8.2000,     14.700,    5.193263e-03
  71,     8.1903,     14.700,    5.554312e-03
  72,     8.1598,     14.700,    5.926557e-03
  73,     8.1454,     14.700,    5.571588e-03
  74,     8.1196,     14.700,    5.300105e-03
  75,     8.0985,     14.700,    4.128511e-03
  76,     8.0798,     14.700,    4.900146e-03
  77,     8.0724,     10.168,    1.890303e-03
  78,     8.0684,      8.346,    1.664437e-03
  79,     8.0633,      4.023,    1.572539e-03
  80,     8.0558,      3.208,    9.848434e-04
  81,     8.0496,     14.700,    5.615374e-03
  82,     8.0411,     14.700,    7.443132e-03
  83,     8.0204,     14.700,    4.660883e-03
  84,     8.0070,     14.700,    3.612065e-03
  85,     7.9980,     14.700,    5.393031e-03
  86,     7.9862,     14.700,    4.627290e-03
  87,     7.9731,     14.700,    5.725295e-03
  88,     7.9627,     13.570,    4.810001e-03
  89,     7.9564,      4.283,    1.143425e-03
  90,     7.9530,      7.993,    2.039972e-03
  91,     7.9450,      6.370,    2.159602e-03
  92,     7.9390,      4.075,    8.610341e-04
  93,     7.9338,      7.340,    2.888744e-03
  94,     7.9289,      7.524,    1.563787e-03
  95,     7.9265,      0.244,    2.886805e-04
  96,     7.9168,     14.700,    4.757017e-03
  97,     7.9059,     14.700,    4.717533e-03
  98,     7.8919,     14.700,    4.082647e-03
  99,     7.8788,     14.700,    2.968732e-03
 100,     7.8663,     14.700,    3.229949e-03
 101,     7.8563,     14.700,    5.851213e-03
 102,     7.8441,     14.700,    4.896283e-03
 103,     7.8318,     14.700,    5.288599e-03
 104,     7.8209,     14.700,    6.081180e-03
 105,     7.8051,     14.700,    4.616927e-03
 106,     7.7911,     14.700,    4.384126e-03
 107,     7.7553,     14.700,    5.306778e-03
 108,     7.7433,      3.562,    1.673915e-03
 109,     7.7378,     14.343,    3.859903e-03
 110,     7.7293,     13.053,    3.246142e-03
 111,     7.7181,     14.700,    3.807888e-03
 112,     7.7062,     14.700,    5.084988e-03
 113,     7.6961,     14.700,    5.395206e-03
 114,     7.6880,      6.893,    1.228794e-03
 115,     7.6795,      8.236,    2.446674e-03
 116,     7.6717,      9.013,    2.290977e-03
 117,     7.6636,     14.700,    3.421416e-03
 118,     7.6503,     14.700,    2.846280e-03
 119,     7.6399,     14.700,    3.036425e-03
 120,     7.6294,     14.700,    3.492996e-03
 121,     7.6176,      6.753,    1.927938e-03
 122,     7.6115,     11.627,    1.465028e-03
 123,     7.6046,     11.633,    2.974081e-03
 124,     7.5965,      9.089,    2.707025e-03
 125,     7.5900,      9.616,    1.259474e-03
 126,     7.5796,     14.700,    4.372499e-03
 127,     7.5683,     14.700,    1.475140e-03
 128,     7.5568,     14.700,    3.301163e-03
 129,     7.5460,     14.700,    3.487270e-03
 130,     7.5360,     14.700,    4.356026e-03
 131,     7.5214,     14.700,    3.424483e-03
 132,     7.5049,     14.700,    4.181528e-03
 133,     7.4830,     14.700,    5.019950e-03
 134,     7.4719,     14.700,    7.364174e-03
 135,     7.4600,     14.700,    2.916649e-03
 136,     7.4479,     14.700,    3.469675e-03
 137,     7.4343,     14.700,    2.990583e-03
 138,     7.4254,     14.700,    1.719996e-03
 139,     7.4172,     14.700,    5.649902e-03
 140,     7.4051,      6.631,    1.546846e-03
 141,     7.3971,     13.968,    4.699293e-03
 142,     7.3892,     14.700,    3.382832e-03
 143,     7.3814,     14.700,    3.918308e-03
 144,     7.3725,      7.420,    1.748508e-03
 145,     7.3603,     14.700,    4.450983e-03
 146,     7.3520,     14.700,    3.796855e-03
 147,     7.3410,     14.700,    4.203889e-03
 148,     7.3258,     14.700,    5.184751e-03
 149,     7.3170,     14.700,    2.660797e-03
 150,     7.3096,     12.215,    3.007448e-03
 151,     7.3010,      3.158,    7.381999e-04
 152,     7.2967,      5.042,    1.470928e-03
 153,     7.2895,      5.048,    1.489365e-03
 154,     7.2856,      7.216,    2.231883e-03
 155,     7.2740,     14.700,    3.894575e-03
 156,     7.2622,     14.700,    2.739354e-03
 157,     7.2501,     14.700,    4.307117e-03
 158,     7.2343,     14.700,    3.904843e-03
 159,     7.2251,     14.700,    3.341562e-03
 160,     7.2134,     14.700,    4.446148e-03
 161,     7.1995,     14.700,    3.434695e-03
 162,     7.1792,     14.700,    3.499337e-03
 163,     7.1667,      6.548,    2.488468e-03
 164,     7.1575,     14.700,    4.036928e-03
 165,     7.1420,     14.700,    4.473208e-03
 166,     7.1234,     14.700,    3.623390e-03
 167,     7.1185,     14.700,    2.759527e-03
 168,     7.1018,     14.700,    3.339818e-03
 169,     7.0903,     14.700,    2.349811e-03
 170,     7.0793,     14.700,    6.899454e-03
 171,     7.0692,     14.700,    1.647566e-03
 172,     7.0564,     14.700,    3.717355e-03
 173,     7.0448,     11.356,    2.522480e-03
 174,     7.0361,      6.038,    1.594294e-03
 175,     7.0245,     14.700,    1.521681e-03
 176,     7.0155,     14.700,    2.985424e-03
 177,     7.0073,      3.693,    1.130897e-03
 178,     6.9968,     14.700,    3.123834e-03
 179,     6.9888,     14.700,    3.501407e-03
 180,     6.9788,     14.700,    4.753011e-03
 181,     6.9679,      5.449,    1.526345e-03
 182,     6.9557,     14.700,    4.066004e-03
 183,     6.9465,      4.864,    1.075430e-03
 184,     6.9321,     14.700,    3.722088e-03
 185,     6.9223,     14.700,    3.683400e-03
 186,     6.9113,     14.700,    3.137905e-03
 187,     6.8984,     14.700,    4.284976e-03
 188,     6.8841,     14.700,    4.636116e-03
 189,     6.8673,     14.700,    4.144776e-03
 190,     6.8569,     14.700,    2.505841e-03
 191,     6.8430,     14.700,    2.474845e-03
 192,     6.8353,      8.969,    1.886204e-03
 193,     6.8262,     14.700,    2.572711e-03
 194,     6.8198,     12.324,    4.411026e-03
 195,     6.8122,      8.147,    2.069146e-03
 196,     6.7912,     14.700,    3.042365e-03
 197,     6.7756,     14.700,    3.699219e-03
 198,     6.7504,     14.700,    3.977478e-03
 199,     6.7384,     14.700,    3.564481e-03
 200,     6.7171,     14.700,    4.415581e-03
 201,     6.6962,     14.700,    5.453297e-03
 202,     6.6669,     14.700,    2.587705e-03
 203,     6.6575,     10.149,    2.880251e-03
 204,     6.6450,     14.700,    4.151828e-03
 205,     6.6318,     14.700,    3.863459e-03
 206,     6.6215,     14.700,    3.497594e-03
 207,     6.6109,     14.700,    2.841581e-03
 208,     6.5972,     14.700,    6.150508e-03
 209,     6.5795,     14.700,    2.772012e-03
 210,     6.5679,     14.700,    3.588647e-03
 211,     6.5595,      1.969,    6.341975e-04
 212,     6.5513,      5.607,    2.078507e-03
 213,     6.5453,      8.407,    2.728789e-03
 214,     6.5330,     14.700,    4.872406e-03
 215,     6.5222,     14.700,    6.594022e-03
 216,     6.5033,     14.700,    4.819483e-03
 217,     6.4919,     14.700,    3.636794e-03
 218,     6.4790,     14.700,    3.652445e-03
 219,     6.4671,     14.700,    4.774342e-03
 220,     6.4493,     14.700,    4.448691e-03
 221,     6.4355,     14.700,    4.819713e-03
 222,     6.4178,     14.700,    5.139492e-03
 223,     6.4038,     14.700,    4.140054e-03
 224,     6.3960,     14.700,    2.910256e-03
 225,     6.3853,     14.346,    2.203020e-03
 226,     6.3792,      5.549,    1.357505e-03
 227,     6.3703,     14.700,    2.814670e-03
 228,     6.3635,     14.700,    6.118651e-03
 229,     6.3522,      6.076,    1.604987e-03
 230,     6.3381,     14.700,    4.655473e-03
 231,     6.3251,     14.700,    4.545877e-03
 232,     6.3131,     14.700,    5.327822e-03
 233,     6.2988,     14.700,    5.444644e-03
 234,     6.2761,     14.700,    4.627498e-03
 235,     6.2630,     12.513,    3.394539e-03
 236,     6.2534,     14.700,    5.261948e-03
 237,     6.2437,     14.700,    4.443144e-03
 238,     6.2273,     14.700,    2.342383e-03
 239,     6.2194,      9.449,    2.223861e-03
 240,     6.2106,     14.700,    3.552144e-03
 241,     6.2037,      9.969,    2.446267e-03
 242,     6.1975,     14.700,    3.271050e-03
 243,     6.1867,     13.181,    3.163812e-03
 244,     6.1775,     14.700,    1.452192e-03
 245,     6.1695,      0.821,    5.110825e-04
 246,     6.1593,     14.700,    4.474347e-03
 247,     6.1521,     14.700,    6.576293e-03
 248,     6.1353,     14.700,    5.231098e-03
 249,     6.1200,     14.700,    6.682151e-03
 250,     6.0948,     14.700,    5.031126e-03
 251,     6.0716,     14.700,    5.519289e-03
 252,     6.0589,     14.700,    4.963746e-03
 253,     6.0468,     14.700,    5.102051e-03
 254,     6.0380,     14.700,    3.708488e-03
 255,     6.0189,     14.700,    3.903962e-03
 256,     6.0048,     14.700,    4.357619e-03
 257,     5.9920,     14.700,    3.635870e-03
 258,     5.9827,     14.700,    4.817723e-03
 259,     5.9723,     14.700,    3.129719e-03
 260,     5.9619,     14.700,    3.539784e-03
 261,     5.9472,     14.700,    3.365776e-03
 262,     5.9210,     14.700,    2.987987e-03
 263,     5.9123,     10.009,    2.711270e-03
 264,     5.9022,     13.576,    3.424940e-03
 265,     5.8967,      3.166,    9.928575e-04
 266,     5.8855,     14.700,    2.632767e-03
 267,     5.8736,     14.700,    2.662388e-03
 268,     5.8583,     14.700,    3.925558e-03
 269,     5.8399,     14.700,    3.809549e-03
 270,     5.8303,      9.239,    2.510730e-03
 271,     5.8219,     14.700,    4.011245e-03
 272,     5.8137,     14.700,    4.218625e-03
 273,     5.7998,     14.700,    4.340624e-03
 274,     5.7881,     14.700,    4.633638e-03
 275,     5.7784,     14.700,    5.473967e-03
 276,     5.7709,     14.700,    4.465463e-03
 277,     5.7557,     14.700,    3.232106e-03
 278,     5.7430,     14.700,    3.918187e-03
 279,     5.7313,     14.700,    4.329867e-03
 280,     5.7123,     14.700,    4.092276e-03
 281,     5.6977,     14.700,    5.064379e-03
 282,     5.6844,     14.700,    4.967534e-03
 283,     5.6715,     14.700,    2.549456e-03
 284,     5.6586,     14.700,    3.677614e-03
 285,     5.6473,     14.700,    4.308044e-03
 286,     5.6301,     14.700,    4.703526e-03
 287,     5.6117,     14.700,    4.300481e-03
 288,     5.5983,     14.700,    4.078497e-03
 289,     5.5773,     14.700,    5.842295e-03
 290,     5.5617,     14.700,    5.017990e-03
 291,     5.5438,     14.700,    5.520462e-03
 292,     5.5152,     14.700,    4.828097e-03
 293,     5.4837,     14.700,    5.048424e-03
 294,     5.4577,     14.700,    3.950725e-03
 295,     5.4463,      7.109,    1.151870e-03
 296,     5.4394,     14.700,    3.407544e-03
 297,     5.4301,     14.700,    3.562967e-03
 298,     5.4179,     14.700,    3.690304e-03
 299,     5.4046,     14.700,    5.119860e-03
 300,     5.3935,      5.942,    2.038167e-03
 301,     5.3861,     14.700,    4.769609e-03
 302,     5.3767,     14.700,    4.694719e-03
 303,     5.3628,     14.700,    6.116264e-03
 304,     5.3429,     14.700,    3.549815e-03
 305,     5.3335,     14.700,    3.801134e-03
 306,     5.3168,     14.700,    3.335001e-03
 307,     5.3068,     14.700,    3.903159e-03
 308,     5.2933,     14.700,    4.660531e-03
 309,     5.2798,     14.700,    5.569314e-03
 310,     5.2703,      3.792,    7.782725e-04
 311,     5.2615,      9.780,    1.743805e-03
 312,     5.2581,      3.648,    6.740575e-04
 313,     5.2522,      8.952,    2.491017e-03
 314,     5.2450,      8.646,    3.626637e-03
 315,     5.2384,     14.700,    2.666248e-03
 316,     5.2307,     14.700,    4.582701e-03
 317,     5.2251,     14.700,    1.957021e-03
 318,     5.2140,     14.700,    4.658707e-03
 319,     5.2051,      8.026,    2.261421e-03
 320,     5.1970,     11.362,    3.250566e-03
 321,     5.1884,     14.700,    3.690909e-03
 322,     5.1809,     14.700,    3.077270e-03
 323,     5.1745,      7.541,    2.387675e-03
 324,     5.1672,     10.278,    2.480639e-03
 325,     5.1618,      8.534,    2.183357e-03
 326,     5.1498,     14.700,    4.715312e-03
 327,     5.1414,      7.413,    1.734231e-03
 328,     5.1356,     14.700,    3.875135e-03
 329,     5.1221,     14.700,    4.996890e-03
 330,     5.1066,     14.700,    5.220028e-03
 331,     5.0908,     14.700,    5.718924e-03
 332,     5.0749,     14.700,    3.582137e-03
 333,     5.0636,     14.700,    2.870714e-03
 334,     5.0538,     14.700,    3.765736e-03
 335,     5.0449,     12.284,    2.938484e-03
 336,     5.0362,      2.510,    7.095011e-04
 337,     5.0301,     12.841,    3.548421e-03
 338,     5.0205,     14.700,    1.547180e-03
 339,     5.0092,     14.700,    4.783960e-03
 340,     4.9996,     14.700,    4.263895e-03
 341,     4.9905,     14.700,    2.541611e-03
 342,     4.9822,     14.700,    2.195494e-03
 343,     4.9700,     14.127,    1.820142e-03
 344,     4.9609,      9.333,    2.353534e-03
 345,     4.9474,     14.700,    2.905368e-03
 346,     4.9377,     14.700,    2.884043e-03
 347,     4.9306,     14.700,    4.877309e-03
 348,     4.9241,      4.520,    1.400196e-03
 349,     4.9109,     14.700,    3.643011e-03
 350,     4.8996,     14.700,    3.561959e-03
 351,     4.8856,     14.700,    1.684935e-02
 352,     4.8728,     14.700,    1.542196e-02
 353,     4.8584,     14.700,    1.539548e-02
 354,     4.8454,     14.700,    1.313027e-02
 355,     4.8347,     14.700,    1.227839e-02
 356,     4.8237,     14.700,    1.153382e-02
 357,     4.8114,     14.700,    1.021944e-02
 358,     4.8049,     14.700,    6.290580e-02
 359,     4.7983,     14.700,    5.910178e-02
 360,     4.7919,     14.700,    5.744651e-02
 361,     4.7858,     14.700,    6.359598e-02
 362,     4.7710,     14.700,    1.106088e-01
 363,     4.7620,     14.700,    1.022498e-01
 364,     4.7531,     14.700,    9.295660e-02
 365,     4.7438,     14.700,    9.150791e-02
 366,     4.7346,     14.700,    9.120115e-02
 367,     4.7204,     14.700,    4.714517e-03
 368,     4.7079,     14.700,    4.026974e-03
 369,     4.6985,     14.700,    3.642188e-03
 370,     4.6875,     14.700,    4.873060e-03
 371,     4.6819,     14.700,    4.992471e-03
 372,     4.6681,     14.700,    3.810582e-03
 373,     4.6572,      5.487,    1.542707e-03
 374,     4.6492,     10.991,    2.923420e-03
 375,     4.6416,     13.413,    3.810759e-03
 376,     4.6338,     12.470,    3.975352e-03
 377,     4.6266,     14.700,    2.537549e-03
 378,     4.6219,     14.402,    4.678915e-03
 379,     4.6146,      8.151,    2.026787e-03
 380,     4.6030,     12.948,    3.562375e-03
 381,     4.5959,     14.700,    2.548000e-03
 382,     4.5912,     14.700,    4.191592e-03
 383,     4.5798,     14.700,    7.061882e-03
 384,     4.5692,     14.206,    3.874704e-03
 385,     4.5620,     14.700,    7.350641e-03
 386,     4.5494,     14.700,    5.753009e-03
 387,     4.5392,     14.700,    6.423645e-03
 388,     4.5292,     14.700,    5.788664e-03
 389,     4.5157,     14.700,    5.677434e-03
 390,     4.5046,     14.700,    6.163853e-03
 391,     4.4965,     14.700,    7.134412e-03
 392,     4.4845,     14.700,    3.907079e-03
 393,     4.4731,     14.700,    6.125106e-03
 394,     4.4638,     14.700,    5.756887e-03
 395,     4.4476,     14.700,    8.802806e-03
 396,     4.4262,     14.700,    3.910492e-03
 397,     4.4157,     14.700,    4.663153e-03
 398,     4.4048,     14.700,    5.207133e-03
 399,     4.3878,     14.700,    7.172708e-03
 400,     4.3746,     14.700,    6.188642e-03
 401,     4.3672,     14.700,    4.479046e-03
 402,     4.3565,      9.881,    3.521339e-03
 403,     4.3524,      2.159,    8.741041e-04
 404,     4.3441,     10.983,    2.154419e-03
 405,     4.3380,     11.023,    2.134338e-03
 406,     4.3308,     14.700,    3.187242e-03
 407,     4.3194,     14.700,    2.820479e-03
 408,     4.3099,      5.736,    1.916188e-03
 409,     4.2954,     14.700,    5.753527e-03
 410,     4.2890,     14.700,    3.755911e-03
 411,     4.2810,     14.700,    5.090659e-03
 412,     4.2702,     14.700,    1.637697e-03
 413,     4.2622,      9.985,    6.441904e-04
 414,     4.2536,     14.700,    5.196354e-03
 415,     4.2451,     12.234,    7.794007e-03
 416,     4.2366,     14.700,    5.882926e-03
 417,     4.2241,     14.700,    4.495855e-03
 418,     4.2131,     14.700,    3.339665e-03
 419,     4.2000,     14.700,    4.727904e-03
 420,     4.1858,     14.700,    3.944320e-03
 421,     4.1667,     14.700,    3.653632e-03
 422,     4.1539,     14.700,    3.877481e-03
 423,     4.1435,      6.215,    2.432548e-03
 424,     4.1386,     14.700,    4.392794e-03
 425,     4.1328,     14.700,    4.849966e-03
 426,     4.1238,     14.700,    5.250867e-03
 427,     4.1191,      4.653,    9.667522e-04
 428,     4.1120,      4.761,    8.616103e-04
 429,     4.1026,     10.783,    2.943858e-03
 430,     4.0935,     14.700,    5.132330e-03
 431,     4.0631,      7.074,    2.679924e-02
 432,     4.0596,     13.144,    8.431996e-02
 433,     4.0562,     13.453,    1.606646e-01
