index,   freq_ppm,   decay_hz, amplitude
   1,     9.0791,     14.700,    5.146984e-03
   2,     9.0666,     14.700,    4.041767e-03
   3,     9.0516,     14.700,    3.346897e-03
   4,     9.0300,     14.700,    3.981984e-03
   5,     9.0173,     14.700,    3.465718e-03
   6,     9.0054,     14.700,    2.738550e-03
   7,     8.9914,     14.700,    2.400270e-03
   8,     8.9838,     14.700,    2.960361e-03
   9,     8.9647,     14.700,    3.140287e-03
  10,     8.9570,     14.700,    1.619864e-03
  11,     8.9507,     14.700,    3.222731e-03
  12,     8.9376,     14.700,    2.696502e-03
  13,     8.9170,     14.700,    1.869797e-03
  14,     8.9079,     14.700,    2.450262e-03
  15,     8.8919,     14.700,    2.535291e-03
  16,     8.8754,     14.700,    1.506428e-03
  17,     8.8577,     14.164,    2.419843e-03
  18,     8.8481,     14.700,    3.813521e-03
  19,     8.8428,      8.755,    1.764034e-03
  20,     8.8348,     14.700,    3.031282e-03
  21,     8.8247,     14.700,    3.040859e-03
  22,     8.8094,     10.194,    3.007148e-03
  23,     8.8005,     14.700,    2.953846e-03
  24,     8.7928,      7.987,    1.081836e-03
  25,     8.7878,     13.968,    4.398612e-03
  26,     8.7791,     12.221,    2.224672e-03
  27,     8.7721,      4.605,    4.791153e-04
  28,     8.7676,     13.249,    3.639585e-03
  29,     8.7554,     12.466,    4.022590e-03
  30,     8.7481,     14.700,    4.292902e-03
  31,     8.7424,      7.082,    6.556723e-04
  32,     8.7334,     14.700,    3.629073e-03
  33,     8.7257,     14.700,    8.012232e-04
  34,     8.7201,      4.166,    6.976300e-04
  35,     8.7078,     14.700,    2.565551e-03
  36,     8.6954,     11.970,    1.800180e-03
  37,     8.6893,     12.928,    1.484863e-03
  38,     8.6836,     14.700,    2.863137e-03
  39,     8.6704,     14.700,    2.966214e-03
  40,     8.6653,     14.700,    2.486023e-03
  41,     8.6599,      9.544,    1.179274e-03
  42,     8.6524,      8.080,    1.218734e-03
  43,     8.6451,     14.700,    3.141233e-03
  44,     8.6335,     14.700,    4.065989e-03
  45,     8.6219,     14.700,    2.640718e-03
  46,     8.6154,     14.700,    2.819518e-03
  47,     8.6093,      2.100,    4.287085e-04
  48,     8.6020,     10.539,    1.907069e-03
  49,     8.5959,     14.700,    1.728181e-03
  50,     8.5818,     14.700,    2.388883e-03
  51,     8.5748,     12.130,    1.915096e-03
  52,     8.5606,     14.700,    4.780371e-03
  53,     8.5517,     14.700,    2.808872e-03
  54,     8.5414,     14.700,    3.759137e-03
  55,     8.5234,     14.700,    3.419553e-03
  56,     8.5110,     14.700,    3.932649e-03
  57,     8.4976,     14.700,    3.887470e-03
  58,     8.4837,     14.700,    3.411522e-03
  59,     8.4460,      7.734,    7.612392e-02
  60,     8.4448,     10.565,    7.313199e-02
  61,     8.4370,     14.700,    1.115279e-02
  62,     8.4267,     14.700,    9.170565e-03
  63,     8.4105,     14.700,    6.342425e-03
  64,     8.4027,      8.666,    2.160241e-03
  65,     8.3927,     14.447,    2.639357e-03
  66,     8.3832,     14.700,    1.697257e-03
  67,     8.3728,     14.700,    2.577846e-03
  68,     8.3614,     14.700,    2.131763e-03
  69,     8.3485,     10.989,    2.922636e-03
  70,     8.3371,     14.700,    4.101805e-03
  71,     8.3263,     14.700,    2.820594e-03
  72,     8.3206,     14.700,    4.053845e-03
  73,     8.3087,      2.979,    5.608241e-04
  74,     8.2996,      9.924,    2.624283e-03
  75,     8.2949,     14.700,    2.968205e-03
  76,     8.2860,      7.965,    1.791348e-03
  77,     8.2756,     11.001,    2.024027e-03
  78,     8.2693,     12.908,    2.782420e-03
  79,     8.2638,      6.703,    1.471538e-03
  80,     8.2570,      1.769,    5.601413e-04
  81,     8.2541,     10.274,    1.232485e-03
  82,     8.2448,     14.700,    3.028017e-03
  83,     8.2329,     14.700,    3.357715e-03
  84,     8.2100,     14.700,    4.878389e-03
  85,     8.2017,     14.700,    3.346586e-03
  86,     8.1910,     14.700,    4.402089e-03
  87,     8.1801,     14.700,    4.910513e-03
  88,     8.1682,     14.700,    3.459809e-03
  89,     8.1571,     14.700,    3.697665e-03
  90,     8.1470,      6.126,    1.483424e-03
  91,     8.1395,     12.036,    3.919193e-03
  92,     8.1224,     14.700,    3.400575e-03
  93,     8.1117,     14.700,    2.129267e-03
  94,     8.1026,     14.700,    3.090988e-03
  95,     8.0915,     14.700,    4.961345e-03
  96,     8.0799,     14.700,    3.821910e-03
  97,     8.0697,     14.700,    2.047299e-03
  98,     8.0628,      5.228,    9.704955e-04
  99,     8.0496,     14.700,    3.479011e-03
 100,     8.0387,     12.425,    2.261676e-03
 101,     8.0323,     14.700,    1.984926e-03
 102,     8.0210,     14.700,    2.119184e-03
 103,     8.0111,     11.128,    2.411775e-03
 104,     7.9984,     14.700,    2.087084e-03
 105,     7.9901,     14.700,    2.475412e-03
 106,     7.9801,     14.700,    2.922127e-03
 107,     7.9668,     14.700,    2.615080e-03
 108,     7.9574,     12.422,    1.875462e-03
 109,     7.9457,     14.700,    2.936319e-03
 110,     7.9321,     14.700,    2.224550e-03
 111,     7.9247,     11.388,    1.286391e-03
 112,     7.9169,     14.700,    1.835981e-03
 113,     7.9085,     13.137,    2.441213e-03
 114,     7.8975,     14.700,    1.843364e-03
 115,     7.8902,      4.454,    6.282025e-04
 116,     7.8768,     14.700,    2.280345e-03
 117,     7.8660,     10.371,    4.828960e-03
 118,     7.8558,     14.700,    5.920330e-03
 119,     7.8390,     11.110,    1.729030e-03
 120,     7.8365,      7.035,    1.161639e-03
 121,     7.8291,      9.224,    1.912411e-03
 122,     7.8230,     11.518,    1.181572e-03
 123,     7.8171,     10.769,    2.415355e-03
 124,     7.8081,     11.387,    2.591982e-03
 125,     7.7978,     10.221,    1.454196e-03
 126,     7.7887,     14.700,    1.571428e-03
 127,     7.7819,     12.221,    1.999378e-03
 128,     7.7714,     10.781,    2.001513e-03
 129,     7.7681,     14.700,    3.418489e-03
 130,     7.7546,     14.700,    3.110729e-03
 131,     7.7452,      6.272,    7.772429e-04
 132,     7.7360,     14.173,    2.430899e-03
 133,     7.7285,     10.842,    2.086576e-03
 134,     7.7214,      5.014,    1.291075e-03
 135,     7.7145,     12.605,    3.230582e-03
 136,     7.6988,      8.053,    1.307199e-03
 137,     7.6888,     14.700,    2.041475e-03
 138,     7.6806,     14.700,    2.229147e-03
 139,     7.6681,     14.700,    1.794291e-03
 140,     7.6476,     14.700,    2.737642e-03
 141,     7.6407,      9.613,    1.311403e-03
 142,     7.6346,     11.192,    2.851079e-03
 143,     7.6250,      9.364,    2.063456e-03
 144,     7.6186,      2.616,    5.348607e-04
 145,     7.6061,     14.700,    3.670799e-03
 146,     7.5935,     12.698,    2.399116e-03
 147,     7.5849,      1.128,    3.426642e-04
 148,     7.5789,     14.700,    3.982092e-03
 149,     7.5681,      4.714,    8.904433e-04
 150,     7.5601,      9.123,    2.119110e-03
 151,     7.5524,      8.056,    2.531939e-03
 152,     7.5449,     12.134,    3.320973e-03
 153,     7.5413,     14.700,    2.581279e-03
 154,     7.5340,     14.700,    5.408828e-03
 155,     7.5188,     14.700,    1.941373e-03
 156,     7.5120,     14.700,    1.701510e-03
 157,     7.4972,     11.241,    1.885648e-03
 158,     7.4817,      8.350,    3.766207e-03
 159,     7.4727,     14.700,    7.328858e-03
 160,     7.4647,     14.700,    3.843931e-03
 161,     7.4471,     14.700,    3.526828e-03
 162,     7.4149,     14.700,    3.175831e-03
 163,     7.4001,     14.700,    3.193425e-03
 164,     7.3722,     14.700,    4.352371e-03
 165,     7.3593,     14.700,    2.927716e-03
 166,     7.3527,     14.700,    2.258884e-03
 167,     7.3464,     14.700,    1.739084e-03
 168,     7.3321,     13.775,    3.151398e-03
 169,     7.3157,     14.700,    2.591224e-03
 170,     7.3053,     10.359,    3.270990e-03
 171,     7.2965,     14.700,    2.632289e-03
 172,     7.2864,     14.700,    2.134413e-03
 173,     7.2769,      6.310,    1.200888e-03
 174,     7.2658,     14.700,    4.435002e-03
 175,     7.2451,     14.700,    3.890875e-03
 176,     7.2316,     14.700,    2.584437e-03
 177,     7.2115,     14.700,    3.533449e-03
 178,     7.1850,     14.700,    3.087777e-03
 179,     7.1781,     14.700,    3.049387e-03
 180,     7.1698,     14.700,    2.020182e-03
 181,     7.1608,     14.700,    7.759454e-04
 182,     7.1547,     14.700,    1.713265e-03
 183,     7.1459,      4.709,    1.221648e-03
 184,     7.1396,      3.922,    6.776974e-04
 185,     7.1347,      7.102,    2.035791e-03
 186,     7.1255,     14.700,    3.352539e-03
 187,     7.1178,     10.289,    1.065583e-03
 188,     7.1083,     14.333,    4.991925e-03
 189,     7.0921,      7.643,    1.715388e-03
 190,     7.0846,     14.700,    3.249883e-03
 191,     7.0778,     14.700,    5.312733e-03
 192,     7.0660,     11.423,    2.069780e-03
 193,     7.0548,      8.335,    7.984359e-04
 194,     7.0429,     14.700,    2.501212e-03
 195,     7.0256,      9.513,    1.838133e-03
 196,     7.0197,      7.908,    1.093244e-03
 197,     7.0128,     14.700,    4.057317e-03
 198,     7.0047,      7.594,    1.171329e-03
 199,     6.9925,     14.700,    2.400240e-03
 200,     6.9828,     11.833,    2.536674e-03
 201,     6.9762,     14.700,    2.415818e-03
 202,     6.9640,     14.572,    2.440289e-03
 203,     6.9563,     14.700,    2.199495e-03
 204,     6.9477,     13.515,    3.742637e-03
 205,     6.9336,     14.700,    3.330103e-03
 206,     6.9212,     14.700,    1.425478e-03
 207,     6.9091,     14.700,    2.283919e-03
 208,     6.8910,     14.700,    2.192848e-03
 209,     6.8836,     12.520,    2.198773e-03
 210,     6.8699,     14.700,    2.922883e-03
 211,     6.8643,     14.700,    2.342257e-03
 212,     6.8556,     14.522,    3.440524e-03
 213,     6.8496,     14.700,    1.470934e-03
 214,     6.8325,     14.700,    3.244147e-03
 215,     6.8201,     14.700,    3.337482e-03
 216,     6.8090,     14.700,    2.450653e-03
 217,     6.7986,     14.700,    2.009376e-03
 218,     6.7910,     14.700,    3.188642e-03
 219,     6.7803,     14.700,    3.370278e-03
 220,     6.7623,     14.700,    4.514151e-03
 221,     6.7485,     14.700,    2.593394e-03
 222,     6.7357,     14.700,    2.440457e-03
 223,     6.7202,     14.700,    2.400558e-03
 224,     6.7107,     14.700,    2.381446e-03
 225,     6.7020,     14.700,    2.201993e-03
 226,     6.6937,     10.336,    1.762703e-03
 227,     6.6841,     14.078,    2.106808e-03
 228,     6.6712,     14.700,    4.455398e-03
 229,     6.6552,     14.700,    3.695461e-03
 230,     6.6358,     14.700,    2.834253e-03
 231,     6.6147,     14.700,    3.134119e-03
 232,     6.6007,     14.700,    2.204455e-03
 233,     6.5831,     14.700,    3.235589e-03
 234,     6.5698,      8.414,    1.491572e-03
 235,     6.5641,      8.601,    2.181049e-03
 236,     6.5567,     10.709,    2.443438e-03
 237,     6.5507,     12.754,    2.679163e-03
 238,     6.5412,     12.477,    3.290365e-03
 239,     6.5308,      6.891,    1.772005e-03
 240,     6.5286,      4.439,    9.968939e-04
 241,     6.5198,     12.011,    3.061249e-03
 242,     6.5081,     14.700,    7.223194e-03
 243,     6.5011,     14.087,    1.952673e-03
 244,     6.4940,     14.700,    3.225226e-03
 245,     6.4845,     14.700,    2.900585e-03
 246,     6.4736,      8.469,    2.147539e-03
 247,     6.4650,      4.591,    5.316652e-04
 248,     6.4583,      5.304,    1.173779e-03
 249,     6.4500,      5.753,    1.024645e-03
 250,     6.4432,      6.765,    1.581294e-03
 251,     6.4359,     14.609,    2.683036e-03
 252,     6.4249,      6.011,    7.754005e-04
 253,     6.4149,     11.925,    1.989729e-03
 254,     6.4050,     14.371,    1.969251e-03
 255,     6.3992,     13.788,    1.731805e-03
 256,     6.3934,     14.700,    1.820035e-03
 257,     6.3815,     10.833,    1.349399e-03
 258,     6.3740,      6.877,    1.188619e-03
 259,     6.3631,     14.700,    4.312892e-03
 260,     6.3540,     14.700,    1.460099e-03
 261,     6.3457,      4.042,    4.665100e-04
 262,     6.3381,      6.322,    1.315089e-03
 263,     6.3335,     10.551,    2.385517e-03
 264,     6.3221,     14.700,    4.290803e-03
 265,     6.3111,     12.750,    2.155052e-03
 266,     6.2975,     14.700,    2.539099e-03
 267,     6.2870,     14.700,    2.198381e-03
 268,     6.2707,     14.700,    3.833703e-03
 269,     6.2472,     14.700,    2.813871e-03
 270,     6.2393,     13.276,    2.843438e-03
 271,     6.2310,      4.326,    1.663432e-03
 272,     6.2283,      9.875,    2.100782e-03
 273,     6.2234,     14.700,    2.239194e-03
 274,     6.2168,      6.475,    1.268276e-03
 275,     6.2076,     14.700,    4.876767e-03
 276,     6.1922,     14.700,    3.479859e-03
 277,     6.1793,     14.700,    2.191680e-03
 278,     6.1653,     14.700,    3.584664e-03
 279,     6.1529,     14.700,    3.638839e-03
 280,     6.1384,     14.700,    4.153700e-03
 281,     6.1244,      9.752,    2.607669e-03
 282,     6.1179,     14.700,    1.192886e-03
 283,     6.1127,     13.510,    2.902377e-03
 284,     6.1017,     14.700,    1.570939e-03
 285,     6.0940,     10.213,    2.106175e-03
 286,     6.0914,     14.700,    4.508198e-03
 287,     6.0794,     10.948,    2.661834e-03
 288,     6.0733,     14.163,    1.983290e-03
 289,     6.0656,     14.700,    2.602674e-03
 290,     6.0583,     14.700,    2.671266e-03
 291,     6.0477,     14.700,    4.205361e-03
 292,     6.0293,     14.700,    2.347595e-03
 293,     6.0206,     14.700,    2.453393e-03
 294,     6.0106,     14.700,    3.270364e-03
 295,     5.9933,     14.700,    3.094633e-03
 296,     5.9812,     14.700,    3.101360e-03
 297,     5.9659,     14.700,    3.420813e-03
 298,     5.9494,     14.700,    3.957873e-03
 299,     5.9393,     14.700,    2.569829e-03
 300,     5.9265,     14.700,    3.481199e-03
 301,     5.9164,     14.700,    3.039605e-03
 302,     5.8943,     14.700,    3.311707e-03
 303,     5.8796,     14.700,    3.491596e-03
 304,     5.8526,     14.700,    4.184093e-03
 305,     5.8409,     14.700,    3.380647e-03
 306,     5.8298,     14.700,    4.799110e-03
 307,     5.8184,     14.700,    3.960301e-03
 308,     5.7834,     14.700,    5.068337e-03
 309,     5.7697,      9.505,    2.212252e-03
 310,     5.7619,     11.628,    1.792137e-03
 311,     5.7503,     14.700,    2.952231e-03
 312,     5.7387,     14.700,    1.602388e-03
 313,     5.7275,     14.700,    1.938741e-03
 314,     5.7161,      1.515,    4.099667e-04
 315,     5.7127,      9.122,    2.123402e-03
 316,     5.7030,      9.290,    1.850308e-03
 317,     5.6987,      1.710,    2.721474e-04
 318,     5.6964,      5.756,    1.453274e-03
 319,     5.6875,     12.739,    3.128404e-03
 320,     5.6761,     14.700,    3.001734e-03
 321,     5.6701,     14.700,    2.054692e-03
 322,     5.6589,     14.700,    1.597953e-03
 323,     5.6443,      9.049,    1.722154e-03
 324,     5.6392,     13.946,    3.589990e-03
 325,     5.6275,     14.700,    2.575974e-03
 326,     5.6157,     14.700,    3.509867e-03
 327,     5.6045,     14.700,    2.439939e-03
 328,     5.5955,      6.945,    9.324422e-04
 329,     5.5889,     14.700,    3.233179e-03
 330,     5.5774,     14.700,    3.854158e-03
 331,     5.5688,     14.700,    2.952369e-03
 332,     5.5549,     14.700,    3.903760e-03
 333,     5.5406,     14.700,    2.728402e-03
 334,     5.5259,     14.700,    2.635781e-03
 335,     5.5147,     10.735,    3.276964e-03
 336,     5.5049,     14.071,    4.388315e-03
 337,     5.4983,      0.402,    1.525146e-04
 338,     5.4918,      8.809,    2.340720e-03
 339,     5.4834,     12.301,    2.618151e-03
 340,     5.4781,     10.936,    1.315408e-03
 341,     5.4742,     10.663,    2.088692e-03
 342,     5.4629,     10.006,    2.800648e-03
 343,     5.4555,     12.503,    1.612081e-03
 344,     5.4401,     14.700,    3.728409e-03
 345,     5.4184,     14.700,    5.355166e-03
 346,     5.4053,     14.700,    4.059561e-03
 347,     5.3959,     14.700,    3.899664e-03
 348,     5.3835,     14.700,    4.046028e-03
 349,     5.3732,     14.700,    3.022180e-03
 350,     5.3643,     14.700,    2.551404e-03
 351,     5.3554,     14.700,    4.339837e-03
 352,     5.3427,     14.700,    2.211926e-03
 353,     5.3313,     14.700,    3.010043e-03
 354,     5.3227,     13.910,    4.428004e-03
 355,     5.3113,     14.700,    3.773931e-03
 356,     5.3019,     12.778,    2.493787e-03
 357,     5.2965,     13.655,    3.948246e-03
 358,     5.2801,     14.700,    3.903882e-03
 359,     5.2706,     14.700,    2.163044e-03
 360,     5.2585,     13.943,    1.695950e-03
 361,     5.2535,     14.700,    2.658271e-03
 362,     5.2430,     12.572,    1.202188e-03
 363,     5.2346,     10.492,    1.887716e-03
 364,     5.2234,     14.700,    3.079354e-03
 365,     5.2164,     14.700,    3.501717e-03
 366,     5.2084,     11.440,    1.398818e-03
 367,     5.1996,     14.700,    2.699715e-03
 368,     5.1910,      8.209,    1.553436e-03
 369,     5.1831,     14.700,    1.942790e-03
 370,     5.1698,     14.700,    2.026220e-03
 371,     5.1638,     14.700,    2.673229e-03
 372,     5.1523,     14.700,    2.845053e-03
 373,     5.1421,     14.700,    1.376861e-03
 374,     5.1318,     14.700,    2.331072e-03
 375,     5.1192,     14.700,    2.316151e-03
 376,     5.1094,     14.700,    2.694094e-03
 377,     5.1022,     11.457,    2.560126e-03
 378,     5.0913,     14.700,    2.602245e-03
 379,     5.0805,     14.700,    2.119098e-03
 380,     5.0730,     14.700,    2.026228e-03
 381,     5.0630,     14.700,    2.544608e-03
 382,     5.0479,     14.700,    2.024018e-03
 383,     5.0389,     14.700,    4.250810e-03
 384,     5.0280,     14.700,    3.703052e-03
 385,     5.0158,     14.700,    3.350219e-03
 386,     4.9997,     14.700,    5.245906e-03
 387,     4.9793,     14.700,    4.597028e-03
 388,     4.9720,     11.495,    1.728267e-03
 389,     4.9562,      7.810,    1.664891e-03
 390,     4.9513,      4.176,    7.013890e-04
 391,     4.9447,      7.354,    2.051362e-03
 392,     4.9308,     14.700,    4.963479e-03
 393,     4.9190,     14.700,    5.793984e-03
 394,     4.9025,     14.700,    4.853541e-03
 395,     4.8867,     14.700,    4.012260e-03
 396,     4.8675,     14.700,    4.735841e-03
 397,     4.8516,     14.700,    3.115920e-03
 398,     4.8387,     14.700,    1.171756e-02
 399,     4.8315,     14.700,    1.219776e-02
 400,     4.8233,     14.700,    1.226385e-02
 401,     4.8148,     14.700,    9.408417e-03
 402,     4.8082,     14.700,    1.066959e-02
 403,     4.8014,     14.700,    3.005851e-02
 404,     4.7955,     14.700,    3.079776e-02
 405,     4.7896,     14.700,    2.564155e-02
 406,     4.7849,      9.311,    1.653562e-02
 407,     4.7731,      7.420,    8.137497e-02
 408,     4.7635,     14.700,    7.018422e-02
 409,     4.7523,     14.700,    6.094680e-02
 410,     4.7391,     14.700,    6.225442e-02
 411,     4.7244,     14.700,    6.142635e-02
 412,     4.7094,     14.700,    6.274155e-02
 413,     4.6960,     14.700,    6.341106e-02
 414,     4.6868,     14.700,    4.238519e-03
 415,     4.6776,      4.152,    6.983216e-04
 416,     4.6656,     14.700,    4.370896e-03
 417,     4.6459,     14.700,    2.242181e-03
 418,     4.6397,      5.977,    1.277577e-03
 419,     4.6337,      8.590,    1.511537e-03
 420,     4.6265,      6.932,    1.164680e-03
 421,     4.6204,     14.700,    1.050459e-03
 422,     4.6102,     14.700,    2.502847e-03
 423,     4.5992,     14.700,    2.968527e-03
 424,     4.5844,      9.167,    2.166809e-03
 425,     4.5749,     14.700,    1.587065e-03
 426,     4.5559,      9.118,    2.001202e-03
 427,     4.5483,     14.700,    1.386932e-03
 428,     4.5335,     14.700,    3.967629e-03
 429,     4.5181,      6.828,    1.407569e-03
 430,     4.5081,     14.700,    2.377760e-03
 431,     4.4922,     14.700,    1.557639e-03
 432,     4.4819,     14.700,    2.155326e-03
 433,     4.4730,     14.700,    3.314308e-03
