index,   freq_ppm,   decay_hz, amplitude
   1,     9.0700,     14.700,    2.665573e-03
   2,     9.0610,     14.700,    1.933856e-03
   3,     9.0389,     14.700,    3.839308e-03
   4,     9.0274,     14.700,    2.965936e-03
   5,     9.0191,      7.003,    1.195543e-03
   6,     9.0116,     14.700,    3.523122e-03
   7,     8.9996,     14.700,    1.897765e-03
   8,     8.9817,     14.700,    2.294240e-03
   9,     8.9691,     14.700,    2.041481e-03
  10,     8.9604,     14.700,    2.205946e-03
  11,     8.9495,     14.017,    1.867699e-03
  12,     8.9363,     12.349,    1.974833e-03
  13,     8.9262,     11.954,    1.614326e-03
  14,     8.9196,      9.460,    1.254647e-03
  15,     8.9115,     14.109,    4.616620e-03
  16,     8.8960,     12.487,    1.598334e-03
  17,     8.8881,     13.333,    2.784190e-03
  18,     8.8688,     14.700,    2.553001e-03
  19,     8.8570,     14.700,    2.701652e-03
  20,     8.8399,     14.700,    3.497978e-03
  21,     8.8161,     14.700,    3.371445e-03
  22,     8.8052,     14.700,    2.676471e-03
  23,     8.7935,      8.655,    1.245636e-03
  24,     8.7788,     14.700,    1.349551e-03
  25,     8.7687,     14.700,    1.942241e-03
  26,     8.7551,     14.700,    1.915571e-03
  27,     8.7434,     14.700,    4.242991e-03
  28,     8.7327,     14.700,    1.976545e-03
  29,     8.7220,     14.700,    2.098661e-03
  30,     8.7091,     14.700,    3.142539e-03
  31,     8.6989,     10.742,    1.739581e-03
  32,     8.6896,     14.700,    3.414883e-03
  33,     8.6782,     14.700,    3.397594e-03
  34,     8.6629,     14.700,    3.434428e-03
  35,     8.6470,     14.700,    3.245131e-03
  36,     8.6307,     14.700,    4.084183e-03
  37,     8.6129,     14.700,    4.048234e-03
  38,     8.5990,     14.700,    4.002670e-03
  39,     8.5788,     14.700,    2.813695e-03
  40,     8.5642,     14.700,    8.553545e-03
  41,     8.5518,     14.700,    4.642808e-03
  42,     8.5399,     14.700,    3.571816e-03
  43,     8.5261,     14.700,    3.680692e-03
  44,     8.5125,     14.700,    3.870961e-03
  45,     8.4714,     14.700,    2.915693e-03
  46,     8.4469,      7.022,    9.793747e-02
  47,     8.4455,      6.210,    1.711386e-01
  48,     8.4439,     10.077,    1.176865e-01
  49,     8.4383,     12.560,    2.505055e-02
  50,     8.4312,     12.655,    1.482568e-02
  51,     8.4199,     12.451,    1.146155e-02
  52,     8.3995,     12.596,    1.095865e-02
  53,     8.3882,      4.794,    8.134623e-04
  54,     8.3810,     12.053,    2.048877e-03
  55,     8.3665,     14.700,    2.569481e-03
  56,     8.3615,      4.159,    4.028522e-04
  57,     8.3550,      6.569,    1.452152e-03
  58,     8.3475,     14.700,    4.533350e-03
  59,     8.3338,     14.700,    2.781840e-03
  60,     8.3268,     14.700,    1.757404e-03
  61,     8.3200,     13.685,    5.457978e-03
  62,     8.3105,     14.700,    2.812619e-03
  63,     8.2940,     14.700,    2.401732e-03
  64,     8.2863,      5.323,    8.776240e-04
  65,     8.2775,     14.700,    1.634007e-03
  66,     8.2684,     14.700,    2.237170e-03
  67,     8.2515,     14.700,    2.903322e-03
  68,     8.2428,     14.700,    3.252794e-03
  69,     8.2317,      4.138,    9.820288e-04
  70,     8.2267,     14.700,    4.750110e-03
  71,     8.2138,      9.683,    2.073064e-03
  72,     8.2080,     10.200,    1.791025e-03
  73,     8.2027,     12.357,    2.191591e-03
  74,     8.1918,     14.700,    2.981222e-03
  75,     8.1793,     14.700,    2.582494e-03
  76,     8.1684,     14.700,    2.422536e-03
  77,     8.1575,     14.700,    3.088892e-03
  78,     8.1438,     14.700,    1.930963e-03
  79,     8.1335,     14.700,    1.941077e-03
  80,     8.1236,     14.700,    2.268649e-03
  81,     8.0942,     14.700,    3.231813e-03
  82,     8.0839,      8.141,    1.603914e-03
  83,     8.0753,     12.434,    1.628235e-03
  84,     8.0557,     12.735,    2.645393e-03
  85,     8.0485,     12.464,    2.224779e-03
  86,     8.0389,     12.501,    2.023239e-03
  87,     8.0328,     12.942,    1.704991e-03
  88,     8.0049,     14.700,    5.726815e-03
  89,     7.9876,     14.700,    4.466775e-03
  90,     7.9735,     14.700,    3.877665e-03
  91,     7.9521,     14.700,    5.033304e-03
  92,     7.9251,     14.700,    3.894872e-03
  93,     7.8666,     14.700,    8.839310e-03
  94,     7.8558,     14.700,    8.632111e-03
  95,     7.8407,     14.700,    2.251324e-03
  96,     7.8312,     14.700,    2.660790e-03
  97,     7.8191,     14.700,    2.655013e-03
  98,     7.8023,     14.700,    2.071620e-03
  99,     7.7954,     14.700,    2.038541e-03
 100,     7.7905,      5.978,    1.010154e-03
 101,     7.7836,      9.555,    6.704418e-04
 102,     7.7753,      4.105,    9.017268e-04
 103,     7.7646,     12.466,    1.755495e-03
 104,     7.7587,     12.408,    1.384273e-03
 105,     7.7488,      6.633,    1.464218e-03
 106,     7.7425,      7.093,    1.702723e-03
 107,     7.7377,     14.700,    1.618648e-03
 108,     7.7312,     14.700,    1.384034e-03
 109,     7.7219,      9.787,    1.549343e-03
 110,     7.7155,     14.700,    2.910444e-03
 111,     7.7085,     12.487,    9.562896e-04
 112,     7.7017,      4.198,    7.805586e-04
 113,     7.6935,      9.392,    1.413441e-03
 114,     7.6850,     12.799,    2.264325e-03
 115,     7.6809,      0.838,    1.829712e-04
 116,     7.6771,     11.610,    2.578192e-03
 117,     7.6667,     14.700,    3.285396e-03
 118,     7.6571,     13.097,    2.531788e-03
 119,     7.6486,     14.700,    2.576071e-03
 120,     7.6358,      9.443,    5.757539e-04
 121,     7.6267,     14.700,    2.670564e-03
 122,     7.6166,     14.700,    3.273449e-03
 123,     7.6055,     14.700,    2.197195e-03
 124,     7.6025,     14.700,    2.002063e-03
 125,     7.5924,      9.193,    1.261937e-03
 126,     7.5728,     10.749,    1.518014e-03
 127,     7.5675,     14.700,    1.863093e-03
 128,     7.5599,     14.700,    1.283091e-03
 129,     7.5533,     11.067,    1.239229e-03
 130,     7.5436,     14.700,    4.412808e-03
 131,     7.5354,      7.372,    1.149487e-03
 132,     7.5307,     14.700,    2.748250e-03
 133,     7.5237,      9.887,    1.469955e-03
 134,     7.5179,      3.141,    4.774535e-04
 135,     7.4824,     14.700,    5.390296e-03
 136,     7.4723,     14.700,    9.361365e-03
 137,     7.4612,     14.700,    5.882896e-03
 138,     7.4452,     14.700,    3.813876e-03
 139,     7.4265,     14.700,    3.665321e-03
 140,     7.4026,     14.700,    3.677943e-03
 141,     7.3821,     14.700,    4.595691e-03
 142,     7.3578,      8.222,    1.808144e-03
 143,     7.3530,      2.475,    4.558900e-04
 144,     7.3473,      6.417,    1.112793e-03
 145,     7.3422,     14.700,    2.671037e-03
 146,     7.3319,     10.453,    1.787567e-03
 147,     7.3230,     14.700,    3.022329e-03
 148,     7.3068,     14.700,    3.632548e-03
 149,     7.2939,     14.700,    2.753303e-03
 150,     7.2847,     14.700,    1.667015e-03
 151,     7.2760,      7.495,    1.959694e-03
 152,     7.2696,      8.153,    1.070906e-03
 153,     7.2650,     10.059,    1.062758e-03
 154,     7.2560,      9.952,    1.876851e-03
 155,     7.2502,      8.383,    1.693188e-03
 156,     7.2429,      6.076,    9.228457e-04
 157,     7.2342,     14.700,    2.518648e-03
 158,     7.2195,     14.700,    1.936760e-03
 159,     7.2054,     14.700,    2.658824e-03
 160,     7.1946,     11.482,    1.886207e-03
 161,     7.1878,     14.700,    2.478480e-03
 162,     7.1785,     10.652,    2.221413e-03
 163,     7.1698,     14.517,    3.021751e-03
 164,     7.1657,      0.000,    2.362035e-04
 165,     7.1598,      6.136,    1.123516e-03
 166,     7.1501,     14.700,    3.341020e-03
 167,     7.1402,     14.700,    1.614401e-03
 168,     7.1313,     14.700,    3.602145e-03
 169,     7.1265,     14.700,    1.761806e-03
 170,     7.1176,     13.162,    2.425032e-03
 171,     7.1086,     14.700,    2.829399e-03
 172,     7.0962,     14.700,    2.117904e-03
 173,     7.0888,     14.700,    2.047494e-03
 174,     7.0793,     11.071,    4.357703e-03
 175,     7.0683,     14.584,    1.646408e-03
 176,     7.0567,      9.458,    1.267790e-03
 177,     7.0549,      0.000,    9.684172e-05
 178,     7.0488,     10.654,    1.886019e-03
 179,     7.0440,      9.238,    8.870395e-04
 180,     7.0408,      6.078,    1.014442e-03
 181,     7.0321,      9.369,    1.698950e-03
 182,     7.0249,     12.918,    3.125127e-03
 183,     7.0139,     11.707,    2.347088e-03
 184,     7.0061,     14.700,    2.040785e-03
 185,     6.9962,     14.700,    1.502657e-03
 186,     6.9859,     14.700,    1.826208e-03
 187,     6.9748,     14.700,    2.692576e-03
 188,     6.9666,     14.700,    1.884183e-03
 189,     6.9582,      7.043,    1.248278e-03
 190,     6.9481,     14.700,    2.661707e-03
 191,     6.9359,     14.700,    5.271732e-03
 192,     6.9230,     12.724,    1.533694e-03
 193,     6.9167,      6.267,    8.443854e-04
 194,     6.9117,     14.700,    1.414909e-03
 195,     6.9048,     11.391,    2.052319e-03
 196,     6.8959,      7.103,    9.540976e-04
 197,     6.8889,     13.166,    2.299693e-03
 198,     6.8817,     14.700,    1.574308e-03
 199,     6.8709,     14.700,    2.694179e-03
 200,     6.8584,      7.648,    1.134330e-03
 201,     6.8506,     14.700,    3.265337e-03
 202,     6.8437,     11.901,    2.227293e-03
 203,     6.8329,     13.067,    2.633568e-03
 204,     6.8246,     12.939,    2.625658e-03
 205,     6.8163,     13.011,    2.647229e-03
 206,     6.8001,     14.120,    2.676442e-03
 207,     6.7902,     13.705,    2.581353e-03
 208,     6.7700,     14.700,    3.499405e-03
 209,     6.7575,     14.700,    2.125389e-03
 210,     6.7493,     14.700,    2.730257e-03
 211,     6.7381,     14.700,    2.207789e-03
 212,     6.7270,     14.700,    2.656590e-03
 213,     6.7126,     14.700,    2.322469e-03
 214,     6.6888,     14.700,    3.315917e-03
 215,     6.6757,     14.700,    7.044264e-04
 216,     6.6707,     14.004,    2.070036e-03
 217,     6.6604,     11.013,    1.997860e-03
 218,     6.6540,      8.317,    8.791478e-04
 219,     6.6460,      4.219,    7.614194e-04
 220,     6.6384,     14.700,    3.310309e-03
 221,     6.6286,     14.700,    2.079557e-03
 222,     6.6194,     14.700,    2.133310e-03
 223,     6.6057,     14.700,    2.703100e-03
 224,     6.5829,     14.700,    2.960140e-03
 225,     6.5669,     14.700,    2.128795e-03
 226,     6.5585,     14.700,    1.564939e-03
 227,     6.5507,     14.700,    2.679033e-03
 228,     6.5408,     10.114,    1.992061e-03
 229,     6.5347,     14.700,    2.408295e-03
 230,     6.5229,      6.964,    8.939513e-04
 231,     6.5138,     14.700,    3.623083e-03
 232,     6.4943,     14.700,    2.452351e-03
 233,     6.4811,     14.700,    1.623190e-03
 234,     6.4736,     14.700,    3.367408e-03
 235,     6.4635,     14.700,    4.837544e-03
 236,     6.4415,     14.700,    3.174892e-03
 237,     6.4298,     14.700,    2.857740e-03
 238,     6.4080,     14.700,    2.870871e-03
 239,     6.3840,     14.700,    3.049042e-03
 240,     6.3632,     14.700,    4.286008e-03
 241,     6.3526,     14.700,    3.065370e-03
 242,     6.3034,     14.700,    3.131136e-03
 243,     6.2894,     14.700,    4.290902e-03
 244,     6.2671,     14.700,    3.499081e-03
 245,     6.2547,     14.700,    3.699335e-03
 246,     6.2371,     14.700,    2.872926e-03
 247,     6.2237,     14.700,    3.891628e-03
 248,     6.2057,     14.700,    3.745602e-03
 249,     6.1829,     14.700,    2.528293e-03
 250,     6.1735,     14.700,    2.912195e-03
 251,     6.1603,     14.700,    4.264634e-03
 252,     6.1505,     14.700,    3.530737e-03
 253,     6.1440,     14.700,    2.249559e-03
 254,     6.1344,     14.700,    2.750618e-03
 255,     6.1247,     14.393,    3.040333e-03
 256,     6.1083,     14.700,    2.258394e-03
 257,     6.0978,     13.290,    1.873321e-03
 258,     6.0867,     14.700,    2.976147e-03
 259,     6.0789,     14.700,    2.455610e-03
 260,     6.0701,     14.700,    2.647599e-03
 261,     6.0585,      6.711,    9.443914e-04
 262,     6.0442,     14.700,    2.580620e-03
 263,     6.0341,     14.700,    1.394664e-03
 264,     6.0166,     14.700,    3.558091e-03
 265,     6.0017,     14.700,    2.733244e-03
 266,     5.9931,      4.437,    9.935995e-04
 267,     5.9826,     13.453,    2.112187e-03
 268,     5.9778,     14.700,    1.324656e-03
 269,     5.9653,      9.706,    1.009248e-03
 270,     5.9602,     10.020,    1.123195e-03
 271,     5.9502,     14.700,    3.160596e-03
 272,     5.9416,     14.700,    2.839266e-03
 273,     5.9336,     12.783,    1.287219e-03
 274,     5.9274,     14.700,    2.187186e-03
 275,     5.9202,     14.700,    1.757766e-03
 276,     5.9113,     14.700,    3.302340e-03
 277,     5.9094,      4.713,    1.003324e-03
 278,     5.9000,     14.700,    3.878773e-03
 279,     5.8843,      8.226,    1.390663e-03
 280,     5.8786,     14.352,    1.719021e-03
 281,     5.8719,     14.700,    2.344455e-03
 282,     5.8634,      8.731,    1.947618e-03
 283,     5.8518,     13.668,    2.887629e-03
 284,     5.8475,      3.038,    3.420242e-04
 285,     5.8418,      3.116,    5.119064e-04
 286,     5.8353,      9.608,    1.877047e-03
 287,     5.8216,     14.700,    2.814923e-03
 288,     5.8061,     13.901,    2.572242e-03
 289,     5.7978,     14.700,    1.624413e-03
 290,     5.7842,     14.700,    2.212500e-03
 291,     5.7756,     14.700,    2.313902e-03
 292,     5.7622,     14.700,    3.216097e-03
 293,     5.7508,     14.700,    3.216841e-03
 294,     5.7402,     14.700,    3.613896e-03
 295,     5.7238,     14.700,    5.266053e-03
 296,     5.7080,     14.700,    3.138073e-03
 297,     5.6980,     14.700,    3.790125e-03
 298,     5.6675,     14.700,    4.288500e-03
 299,     5.6644,      5.821,    1.311466e-03
 300,     5.6575,     12.164,    2.133996e-03
 301,     5.6503,      3.024,    4.071371e-04
 302,     5.6447,      9.386,    2.036625e-03
 303,     5.6395,      3.785,    8.911694e-04
 304,     5.6330,     12.165,    1.196240e-03
 305,     5.6197,     14.700,    1.526808e-03
 306,     5.6069,      5.311,    4.665520e-04
 307,     5.5984,     14.259,    3.321769e-03
 308,     5.5904,     12.531,    1.984265e-03
 309,     5.5800,      9.148,    1.492805e-03
 310,     5.5682,     14.700,    2.655889e-03
 311,     5.5591,     14.700,    2.821552e-03
 312,     5.5240,     14.700,    5.244487e-03
 313,     5.5038,     14.700,    3.410118e-03
 314,     5.4916,     14.700,    2.102928e-03
 315,     5.4804,     10.972,    1.340588e-03
 316,     5.4654,     14.700,    2.026228e-03
 317,     5.4580,     14.700,    4.280286e-03
 318,     5.4464,      7.500,    9.339630e-04
 319,     5.4400,      9.070,    1.250536e-03
 320,     5.4333,     14.700,    1.692274e-03
 321,     5.4269,      5.283,    9.588382e-04
 322,     5.4169,     14.700,    3.622127e-03
 323,     5.4040,     14.700,    3.107237e-03
 324,     5.3893,     14.700,    2.715436e-03
 325,     5.3804,     14.700,    2.433825e-03
 326,     5.3672,      6.532,    1.545898e-03
 327,     5.3601,     13.534,    2.953418e-03
 328,     5.3545,      0.000,    2.550788e-04
 329,     5.3528,      5.925,    5.325714e-04
 330,     5.3458,     10.218,    1.930518e-03
 331,     5.3402,      7.477,    1.224908e-03
 332,     5.3326,      8.383,    1.078883e-03
 333,     5.3288,      6.808,    1.192669e-03
 334,     5.3244,      7.345,    1.273553e-03
 335,     5.3163,      7.732,    1.894051e-03
 336,     5.3069,     14.700,    2.578471e-03
 337,     5.2981,     14.700,    2.832989e-03
 338,     5.2890,     14.700,    1.827601e-03
 339,     5.2802,     14.700,    2.789848e-03
 340,     5.2665,     14.554,    3.726735e-03
 341,     5.2596,     14.304,    2.292665e-03
 342,     5.2426,     14.549,    3.075626e-03
 343,     5.2296,     13.992,    2.876591e-03
 344,     5.2245,     10.494,    2.125904e-03
 345,     5.2129,     14.541,    3.207918e-03
 346,     5.1970,     14.700,    3.472105e-03
 347,     5.1834,     14.700,    3.394840e-03
 348,     5.1711,     10.861,    2.410592e-03
 349,     5.1639,     14.700,    1.806540e-03
 350,     5.1565,     14.700,    2.436848e-03
 351,     5.1344,     14.700,    3.001943e-03
 352,     5.1157,     14.700,    3.437545e-03
 353,     5.1004,     14.700,    2.859368e-03
 354,     5.0869,     14.700,    3.007314e-03
 355,     5.0710,     14.700,    3.329398e-03
 356,     5.0562,     14.700,    3.394456e-03
 357,     5.0393,     14.700,    3.159221e-03
 358,     5.0288,     14.700,    2.413487e-03
 359,     5.0168,     14.700,    2.673389e-03
 360,     4.9929,     14.700,    1.840748e-03
 361,     4.9848,     14.700,    1.555578e-03
 362,     4.9712,      9.159,    1.280621e-03
 363,     4.9641,      5.488,    1.300825e-03
 364,     4.9545,      7.004,    1.282652e-03
 365,     4.9475,     14.700,    1.601076e-03
 366,     4.9377,     14.700,    2.715443e-03
 367,     4.9324,      2.807,    4.968378e-04
 368,     4.9294,      2.539,    1.996065e-04
 369,     4.9231,      8.045,    1.457399e-03
 370,     4.9172,      6.229,    4.824286e-04
 371,     4.9124,      5.283,    8.175538e-04
 372,     4.9046,     10.876,    2.449004e-03
 373,     4.8980,     11.586,    2.404287e-03
 374,     4.8894,      5.301,    1.092153e-03
 375,     4.8856,      1.005,    2.208862e-04
 376,     4.8812,      0.000,    2.447694e-04
 377,     4.8756,     10.013,    2.299912e-03
 378,     4.8699,      6.488,    1.445533e-03
 379,     4.8601,     14.700,    2.938570e-03
 380,     4.8563,      9.649,    1.879496e-03
 381,     4.8507,      1.171,    3.170597e-04
 382,     4.8456,     13.250,    2.330308e-03
 383,     4.8363,      9.125,    1.500028e-03
 384,     4.8288,     11.703,    1.709100e-03
 385,     4.8234,     14.700,    3.058732e-03
 386,     4.8131,     14.700,    5.866545e-02
 387,     4.8054,     14.700,    5.778240e-02
 388,     4.7975,     14.700,    6.285469e-02
 389,     4.7903,     14.700,    6.997040e-02
 390,     4.7814,     14.700,    6.474894e-02
 391,     4.7696,     14.700,    6.128753e-02
 392,     4.7610,     14.700,    6.572394e-02
 393,     4.7520,     14.700,    6.564512e-02
 394,     4.7427,     14.700,    6.491754e-02
 395,     4.7337,     14.700,    6.379198e-02
 396,     4.7055,     14.700,    4.156718e-03
 397,     4.6812,     14.700,    4.909247e-03
 398,     4.6595,     14.700,    3.263836e-03
 399,     4.6470,     14.700,    3.814844e-03
 400,     4.6227,     14.700,    4.607955e-03
 401,     4.6113,     14.700,    5.262986e-03
 402,     4.5995,     14.700,    5.387131e-03
 403,     4.5843,     14.700,    2.833692e-03
 404,     4.5765,     14.700,    2.866634e-03
 405,     4.5637,     11.590,    2.166302e-03
 406,     4.5578,     14.700,    2.032695e-03
 407,     4.5480,     14.700,    3.706614e-03
 408,     4.5385,      7.679,    1.149271e-03
 409,     4.5350,      7.370,    7.271078e-04
 410,     4.5298,      7.728,    1.639325e-03
 411,     4.5238,      7.613,    1.336634e-03
 412,     4.5069,     14.700,    3.234329e-03
 413,     4.4830,     14.700,    2.662577e-03
 414,     4.4726,     14.700,    2.382536e-03
 415,     4.4580,     14.700,    2.829769e-03
 416,     4.4412,     14.700,    3.514018e-03
 417,     4.4312,     14.700,    2.681237e-03
 418,     4.4106,     14.700,    2.703061e-03
 419,     4.3879,     14.700,    2.976688e-03
 420,     4.3751,     14.700,    2.693327e-03
 421,     4.3642,     14.700,    3.097816e-03
 422,     4.3478,     14.700,    2.411959e-03
 423,     4.3394,     14.700,    2.358779e-03
 424,     4.3289,     14.700,    2.791368e-03
 425,     4.3095,     14.700,    3.592307e-03
 426,     4.3023,     14.700,    2.904037e-03
 427,     4.2891,     14.700,    2.365912e-03
 428,     4.2690,     14.700,    3.168170e-03
 429,     4.2584,     14.700,    2.903564e-03
 430,     4.2447,     14.700,    6.424526e-03
 431,     4.2312,     14.700,    3.195718e-03
 432,     4.2225,     14.700,    4.544497e-03
 433,     4.2064,     14.700,    2.578594e-03
