index,   freq_ppm,   decay_hz, amplitude
   1,     8.9759,      3.064,    1.488324e-03
   2,     8.9691,      5.228,    2.228997e-03
   3,     8.9639,      5.806,    2.311822e-03
   4,     8.9582,      8.313,    3.620435e-03
   5,     8.9493,     14.700,    7.478945e-03
   6,     8.9298,     14.700,    5.767547e-03
   7,     8.9081,     14.700,    7.052005e-03
   8,     8.8736,     14.700,    6.538774e-03
   9,     8.8471,     14.700,    5.712481e-03
  10,     8.8338,     14.700,    5.341242e-03
  11,     8.8130,     14.700,    5.970157e-03
  12,     8.8012,     14.700,    4.531774e-03
  13,     8.7890,     14.700,    4.026851e-03
  14,     8.7762,     14.700,    6.015938e-03
  15,     8.7679,      5.296,    2.106139e-03
  16,     8.7633,     14.700,    8.090844e-03
  17,     8.7402,     14.700,    8.496832e-03
  18,     8.7239,     14.700,    8.160509e-03
  19,     8.6925,     14.700,    7.204032e-03
  20,     8.6741,     14.700,    8.290875e-03
  21,     8.6606,     14.700,    7.842498e-03
  22,     8.6429,     14.700,    7.909772e-03
  23,     8.6302,      2.620,    1.614569e-03
  24,     8.6240,     14.700,    6.170578e-03
  25,     8.6143,     14.700,    6.672362e-03
  26,     8.6034,     14.700,    5.810861e-03
  27,     8.5955,      8.071,    3.213934e-03
  28,     8.5819,     14.700,    1.279575e-02
  29,     8.5649,     14.700,    2.047472e-02
  30,     8.5509,     14.700,    1.045632e-02
  31,     8.5393,     14.700,    1.128840e-02
  32,     8.5223,     14.700,    1.273768e-02
  33,     8.5110,     14.700,    1.031207e-02
  34,     8.4994,     14.700,    2.987880e-02
  35,     8.4461,      8.673,    5.158764e-01
  36,     8.4445,     10.415,    3.140953e-01
  37,     8.4381,      7.084,    3.737935e-02
  38,     8.4286,     14.700,    4.203214e-02
  39,     8.4114,     14.700,    3.582082e-02
  40,     8.3895,     14.700,    3.462802e-02
  41,     8.3782,     14.700,    5.651787e-03
  42,     8.3668,     14.700,    5.034345e-03
  43,     8.3524,     14.700,    4.195350e-03
  44,     8.3356,     14.700,    3.868239e-03
  45,     8.3206,     14.700,    1.214799e-02
  46,     8.2999,     14.700,    5.561688e-03
  47,     8.2831,     14.700,    7.879307e-03
  48,     8.2729,     14.700,    5.679202e-03
  49,     8.2598,     14.700,    6.007737e-03
  50,     8.2500,     14.700,    5.870800e-03
  51,     8.2357,     14.700,    5.782808e-03
  52,     8.2241,      8.345,    4.466471e-03
  53,     8.2136,     14.700,    6.702032e-03
  54,     8.2072,     14.700,    4.196583e-03
  55,     8.1985,     14.376,    4.937987e-03
  56,     8.1908,     11.422,    4.122839e-03
  57,     8.1826,      6.844,    3.023475e-03
  58,     8.1760,      8.522,    3.177277e-03
  59,     8.1625,     14.700,    6.036347e-03
  60,     8.1514,     14.700,    6.660125e-03
  61,     8.1392,     14.700,    6.370440e-03
  62,     8.1270,     14.700,    6.281308e-03
  63,     8.1164,      8.998,    4.758515e-03
  64,     8.1042,     14.700,    5.116555e-03
  65,     8.0937,     14.700,    4.294294e-03
  66,     8.0865,     14.700,    4.737085e-03
  67,     8.0774,     10.100,    3.617102e-03
  68,     8.0717,      7.793,    3.721046e-03
  69,     8.0554,     14.700,    5.041290e-03
  70,     8.0402,     14.700,    5.659783e-03
  71,     8.0245,     14.700,    5.848426e-03
  72,     8.0071,     14.700,    5.909633e-03
  73,     7.9925,     14.700,    3.318171e-03
  74,     7.9757,     14.700,    4.884863e-03
  75,     7.9654,     14.700,    3.882951e-03
  76,     7.9572,      6.055,    2.068972e-03
  77,     7.9474,     14.700,    3.979097e-03
  78,     7.9390,     14.700,    4.537452e-03
  79,     7.9236,     14.700,    5.675255e-03
  80,     7.9043,     14.700,    3.605208e-03
  81,     7.8941,     14.700,    6.001814e-03
  82,     7.8665,     14.700,    8.924533e-03
  83,     7.8549,     14.700,    7.668377e-03
  84,     7.8348,     14.700,    6.636491e-03
  85,     7.8207,     14.700,    6.097930e-03
  86,     7.7998,     14.700,    5.875959e-03
  87,     7.7807,     14.700,    6.312623e-03
  88,     7.7664,     14.700,    5.878828e-03
  89,     7.7429,     14.700,    5.882965e-03
  90,     7.7291,     14.700,    5.724608e-03
  91,     7.7067,     14.700,    5.723685e-03
  92,     7.6682,     14.700,    5.508575e-03
  93,     7.6513,     14.700,    4.965180e-03
  94,     7.6285,     14.700,    7.368371e-03
  95,     7.6053,     14.700,    3.368961e-03
  96,     7.5969,      4.088,    1.954773e-03
  97,     7.5904,      6.642,    2.174185e-03
  98,     7.5806,     14.700,    4.293856e-03
  99,     7.5705,     14.700,    4.696756e-03
 100,     7.5576,      4.845,    1.827766e-03
 101,     7.5508,     11.856,    5.018408e-03
 102,     7.5402,     14.700,    6.573474e-03
 103,     7.5336,      4.436,    1.718649e-03
 104,     7.5284,      5.380,    2.435497e-03
 105,     7.5220,      5.146,    2.483952e-03
 106,     7.5165,      3.355,    2.342246e-03
 107,     7.5080,     14.700,    4.598467e-03
 108,     7.5006,      5.228,    1.820485e-03
 109,     7.4915,     14.700,    4.662379e-03
 110,     7.4821,     14.700,    5.854069e-03
 111,     7.4726,     14.700,    8.276024e-03
 112,     7.4632,     14.700,    8.660917e-03
 113,     7.4425,     14.700,    4.801484e-03
 114,     7.4304,     14.700,    4.782436e-03
 115,     7.4211,     14.700,    5.300469e-03
 116,     7.4031,     14.700,    6.495207e-03
 117,     7.3789,     14.700,    6.395122e-03
 118,     7.3596,     14.700,    6.144162e-03
 119,     7.3221,     14.700,    6.691754e-03
 120,     7.3004,     14.700,    5.327735e-03
 121,     7.2871,     14.700,    5.606108e-03
 122,     7.2761,     14.700,    6.198201e-03
 123,     7.2661,      6.203,    2.126806e-03
 124,     7.2595,     11.763,    5.308448e-03
 125,     7.2502,      6.308,    2.484219e-03
 126,     7.2437,      7.990,    3.256126e-03
 127,     7.2322,     14.700,    5.244392e-03
 128,     7.2220,      6.298,    2.069738e-03
 129,     7.2140,     10.574,    3.835607e-03
 130,     7.2074,      4.293,    2.383397e-03
 131,     7.1898,     12.759,    5.660432e-02
 132,     7.1870,      4.480,    4.794604e-03
 133,     7.1824,      1.045,    1.216273e-03
 134,     7.1796,     14.594,    7.219069e-02
 135,     7.1743,     14.700,    3.928144e-03
 136,     7.1631,     14.700,    3.411535e-03
 137,     7.1529,     14.700,    4.365063e-03
 138,     7.1415,     14.700,    4.758632e-03
 139,     7.1253,     14.700,    5.288858e-03
 140,     7.1123,     14.700,    5.025998e-03
 141,     7.1040,      9.755,    2.705569e-03
 142,     7.0892,     14.700,    4.631435e-03
 143,     7.0819,      3.428,    2.248882e-03
 144,     7.0773,      6.213,    4.281759e-03
 145,     7.0556,     14.700,    4.362489e-03
 146,     7.0411,      5.341,    2.202537e-03
 147,     7.0352,      6.312,    2.073347e-03
 148,     7.0274,     12.505,    2.567453e-03
 149,     7.0201,      4.916,    1.326866e-03
 150,     7.0141,      2.599,    1.029230e-03
 151,     7.0087,      5.469,    2.066223e-03
 152,     7.0003,     14.700,    5.319207e-03
 153,     6.9934,      8.364,    3.104106e-03
 154,     6.9874,      3.878,    2.341612e-03
 155,     6.9818,      6.057,    2.104844e-03
 156,     6.9759,     14.700,    4.183393e-03
 157,     6.9655,     14.700,    5.617251e-03
 158,     6.9524,     14.700,    6.561722e-03
 159,     6.9329,     14.700,    5.531779e-03
 160,     6.9203,     14.700,    3.588847e-03
 161,     6.8966,     14.700,    5.795422e-02
 162,     6.8870,     14.700,    5.497982e-02
 163,     6.8793,     14.700,    5.744025e-03
 164,     6.8671,     14.700,    5.652075e-03
 165,     6.8518,     14.700,    5.787223e-03
 166,     6.8416,      5.345,    2.685985e-03
 167,     6.8360,      3.940,    1.282768e-03
 168,     6.8310,      4.647,    1.837092e-03
 169,     6.8247,      5.090,    2.759731e-03
 170,     6.8183,     11.096,    5.725007e-03
 171,     6.8062,     14.700,    4.134827e-03
 172,     6.7945,     14.700,    4.309779e-03
 173,     6.7831,     14.700,    5.392393e-03
 174,     6.7695,     14.700,    4.091225e-03
 175,     6.7583,      3.901,    2.160604e-03
 176,     6.7527,      9.330,    3.110903e-03
 177,     6.7469,      7.022,    3.022539e-03
 178,     6.7412,      4.929,    2.467962e-03
 179,     6.7298,     14.700,    7.346009e-03
 180,     6.7143,     14.700,    6.310352e-03
 181,     6.7060,     14.700,    5.646599e-03
 182,     6.6875,     14.700,    6.124484e-03
 183,     6.6684,     14.700,    5.988924e-03
 184,     6.6512,     14.700,    6.430228e-03
 185,     6.6294,     14.700,    7.954115e-03
 186,     6.6230,      5.629,    3.192049e-03
 187,     6.6174,      7.497,    1.663170e-03
 188,     6.6122,      6.841,    3.446951e-03
 189,     6.6061,      6.159,    2.417266e-03
 190,     6.6013,      7.540,    2.122784e-03
 191,     6.5956,      8.913,    2.848059e-03
 192,     6.5843,     14.700,    3.053408e-03
 193,     6.5749,     14.700,    4.672781e-03
 194,     6.5633,      8.367,    2.814092e-03
 195,     6.5577,      6.765,    2.781915e-03
 196,     6.5418,      8.362,    3.486226e-03
 197,     6.4840,     14.700,    7.129068e-03
 198,     6.4410,     14.700,    4.747596e-03
 199,     6.4235,     14.700,    5.549320e-03
 200,     6.4065,     14.700,    4.722526e-03
 201,     6.3838,     14.700,    3.595693e-03
 202,     6.3713,     14.700,    3.407257e-03
 203,     6.3596,     14.700,    5.944497e-03
 204,     6.3426,     14.700,    3.805589e-03
 205,     6.3367,     14.700,    6.704889e-03
 206,     6.3256,     14.700,    7.030366e-03
 207,     6.3140,     14.700,    6.612924e-03
 208,     6.3026,     14.700,    5.952993e-03
 209,     6.2879,     14.700,    7.535671e-03
 210,     6.2710,     14.700,    5.564149e-03
 211,     6.2622,     14.700,    5.332314e-03
 212,     6.2531,     14.700,    5.331349e-03
 213,     6.2404,     14.700,    4.893552e-03
 214,     6.2264,     14.700,    5.805474e-03
 215,     6.2091,     14.700,    5.721088e-03
 216,     6.1932,     14.700,    6.433375e-03
 217,     6.1816,     14.700,    4.546337e-03
 218,     6.1711,     14.700,    4.765977e-03
 219,     6.1583,     14.700,    7.032618e-03
 220,     6.1453,     14.700,    6.063681e-03
 221,     6.1287,     14.700,    5.323600e-03
 222,     6.1130,     14.700,    5.888321e-03
 223,     6.0931,     14.700,    5.566307e-03
 224,     6.0742,     14.700,    7.071457e-03
 225,     6.0535,     14.700,    6.714295e-03
 226,     6.0462,      9.410,    3.483642e-03
 227,     6.0411,      4.982,    2.585428e-03
 228,     6.0356,      6.455,    2.323340e-03
 229,     6.0292,      4.401,    2.419591e-03
 230,     6.0235,      5.925,    2.589199e-03
 231,     6.0161,     14.700,    2.707535e-03
 232,     6.0057,     14.700,    3.590657e-03
 233,     5.9940,      8.306,    2.760652e-03
 234,     5.9879,      3.963,    1.763692e-03
 235,     5.9762,     14.700,    6.522733e-03
 236,     5.9540,     14.700,    6.395622e-03
 237,     5.9332,     14.700,    5.471774e-03
 238,     5.9126,     14.700,    5.694089e-03
 239,     5.9007,     14.700,    5.208492e-03
 240,     5.8852,     14.700,    4.911900e-03
 241,     5.8719,     14.700,    4.471341e-03
 242,     5.8446,     14.700,    6.227193e-03
 243,     5.8372,      3.173,    1.687209e-03
 244,     5.8314,     14.700,    3.387325e-03
 245,     5.8236,     14.700,    5.097783e-03
 246,     5.8162,      3.585,    1.441716e-03
 247,     5.8100,      6.179,    2.387943e-03
 248,     5.8011,     14.700,    3.778986e-03
 249,     5.7938,     14.700,    4.525877e-03
 250,     5.7854,     14.700,    3.100584e-03
 251,     5.7758,     14.700,    6.674869e-03
 252,     5.7634,     14.700,    6.104121e-03
 253,     5.7526,     14.700,    5.526069e-03
 254,     5.7422,     14.700,    5.591135e-03
 255,     5.7310,     14.700,    5.753626e-03
 256,     5.7193,     14.700,    4.875440e-03
 257,     5.7105,     14.700,    5.504624e-03
 258,     5.6975,     14.700,    6.904372e-03
 259,     5.6923,      5.010,    2.228332e-03
 260,     5.6856,      6.271,    2.605756e-03
 261,     5.6804,      3.604,    1.551267e-03
 262,     5.6737,      7.319,    2.925880e-03
 263,     5.6682,      7.199,    1.877094e-03
 264,     5.6466,     14.700,    5.351317e-03
 265,     5.6342,     14.700,    5.684312e-03
 266,     5.6170,     14.700,    4.816365e-03
 267,     5.5886,     14.700,    5.257184e-03
 268,     5.5689,     14.700,    5.127365e-03
 269,     5.5488,     14.700,    4.163706e-03
 270,     5.5345,     14.700,    4.911648e-03
 271,     5.5281,     14.700,    5.332419e-03
 272,     5.5130,     14.700,    6.867350e-03
 273,     5.4899,     14.700,    4.020171e-03
 274,     5.4764,     14.700,    5.649244e-03
 275,     5.4581,     14.700,    4.839511e-03
 276,     5.4458,     14.700,    3.704094e-03
 277,     5.4265,     14.700,    4.889314e-03
 278,     5.4190,     14.700,    6.168007e-03
 279,     5.4080,     14.700,    4.115080e-03
 280,     5.3928,     14.700,    3.994016e-03
 281,     5.3807,     14.700,    4.781582e-03
 282,     5.3387,     14.700,    6.134816e-03
 283,     5.3059,     14.700,    6.146643e-03
 284,     5.2899,     14.700,    4.850725e-03
 285,     5.2837,     14.700,    6.047392e-03
 286,     5.2661,     14.700,    4.189348e-03
 287,     5.2527,     14.700,    4.288935e-03
 288,     5.2423,     14.700,    4.240087e-03
 289,     5.2255,     14.700,    5.350618e-03
 290,     5.2066,     14.700,    4.793698e-03
 291,     5.1974,     14.700,    5.614771e-03
 292,     5.1827,     14.700,    6.272502e-03
 293,     5.1715,     14.700,    1.036510e-02
 294,     5.1522,     14.700,    5.293290e-03
 295,     5.1446,      9.558,    4.258145e-03
 296,     5.1373,     14.700,    8.645718e-03
 297,     5.1191,     14.700,    8.839094e-03
 298,     5.0863,     14.700,    8.456619e-03
 299,     5.0595,     14.700,    9.211182e-03
 300,     5.0301,     14.700,    7.679920e-03
 301,     5.0018,     14.700,    8.335906e-03
 302,     4.9693,     14.700,    8.995614e-03
 303,     4.9394,     14.700,    5.212659e-03
 304,     4.9284,     14.700,    3.536708e-03
 305,     4.9196,     14.700,    3.325109e-03
 306,     4.9108,     14.700,    4.679986e-03
 307,     4.9022,      5.798,    2.400552e-03
 308,     4.8898,     14.700,    1.942515e-01
 309,     4.8738,     14.700,    1.868162e-01
 310,     4.8581,     14.700,    1.837180e-01
 311,     4.8422,     14.700,    1.817942e-01
 312,     4.8264,     14.700,    1.796839e-01
 313,     4.8112,     14.700,    1.832913e-01
 314,     4.7955,     14.700,    1.932202e-01
 315,     4.7878,     14.700,    1.095048e-01
 316,     4.7793,     14.700,    1.714838e-01
 317,     4.7664,     14.700,    1.390150e-01
 318,     4.7575,     14.700,    1.287747e-01
 319,     4.7492,     14.700,    1.229496e-01
 320,     4.7341,      6.465,    5.389267e-03
 321,     4.7246,     14.607,    9.621281e-03
 322,     4.7140,     14.550,    7.225317e-03
 323,     4.7029,     14.542,    8.558454e-03
 324,     4.6928,     14.608,    7.759241e-03
 325,     4.6668,     14.700,    7.966960e-03
 326,     4.6380,     14.700,    9.873232e-03
 327,     4.6214,     14.700,    1.062239e-02
 328,     4.5995,     14.700,    8.896378e-03
 329,     4.5817,     14.700,    8.258418e-03
 330,     4.5636,     14.700,    8.710414e-03
 331,     4.5459,     14.700,    6.459925e-03
 332,     4.5211,     14.700,    6.737275e-03
 333,     4.4996,     14.700,    8.866496e-03
 334,     4.4896,     14.700,    1.462929e-02
 335,     4.4791,     14.700,    1.329676e-02
 336,     4.4550,     14.700,    8.063619e-03
 337,     4.4100,     14.700,    7.413866e-03
 338,     4.3980,     14.700,    2.647582e-03
 339,     4.3872,     14.700,    4.229580e-03
 340,     4.3710,     14.700,    3.616472e-03
 341,     4.3546,     14.700,    4.109946e-03
 342,     4.3442,     14.700,    4.585539e-03
 343,     4.3347,     14.700,    4.779887e-03
 344,     4.3242,     14.700,    4.153678e-03
 345,     4.3176,     14.700,    4.320812e-03
 346,     4.3077,      6.621,    2.057810e-03
 347,     4.3012,      5.936,    3.256553e-03
 348,     4.2960,      3.889,    2.097535e-03
 349,     4.2904,      5.878,    2.405441e-03
 350,     4.2790,     14.700,    4.067902e-03
 351,     4.2692,     14.700,    3.826096e-03
 352,     4.2534,     14.700,    4.402317e-03
 353,     4.2471,      4.700,    1.815339e-03
 354,     4.2403,     14.700,    4.739903e-03
 355,     4.2315,     14.700,    5.841278e-03
 356,     4.2187,     14.700,    6.658405e-03
 357,     4.2045,     14.700,    6.167268e-03
 358,     4.1936,     14.700,    6.859366e-03
 359,     4.1865,     11.665,    4.640468e-03
 360,     4.1812,     14.700,    1.136589e-02
 361,     4.1712,     14.700,    7.620290e-03
 362,     4.1576,     14.700,    9.958058e-03
 363,     4.1406,     14.700,    8.848058e-03
 364,     4.1354,     14.403,    2.576002e-02
 365,     4.1306,     14.700,    3.316775e-02
 366,     4.1246,     10.171,    9.433642e-03
 367,     4.1074,     14.700,    1.300079e-01
 368,     4.1028,     14.700,    1.781963e-01
 369,     4.0513,     14.700,    1.839258e-02
 370,     4.0251,     14.700,    3.177427e-01
 371,     4.0092,     14.700,    3.549303e-01
 372,     3.9903,     14.700,    1.951356e-01
 373,     3.9869,     13.725,    1.975098e-01
 374,     3.9839,     12.694,    1.276839e-01
 375,     3.9461,     14.700,    3.923894e-03
 376,     3.9373,     14.700,    2.673170e-02
 377,     3.9308,     10.685,    1.428729e-02
 378,     3.9278,     13.859,    2.372117e-02
 379,     3.9212,     14.700,    2.360621e-02
 380,     3.8955,     11.239,    8.715383e-02
 381,     3.8913,     13.388,    1.099517e-01
 382,     3.8839,      9.752,    7.234969e-02
 383,     3.8821,      7.093,    3.984322e-02
 384,     3.8789,     13.650,    1.314774e-01
 385,     3.8715,      8.286,    1.215987e-02
 386,     3.8667,     14.700,    6.710880e-03
 387,     3.8277,     14.700,    3.432536e-02
 388,     3.8213,     14.700,    4.653490e-02
 389,     3.8155,     14.700,    5.495589e-02
 390,     3.7990,     14.700,    6.540766e-02
 391,     3.7952,     12.916,    2.077130e-01
 392,     3.7823,     14.700,    2.281723e-01
 393,     3.7475,     14.700,    1.135042e-02
 394,     3.7399,     14.700,    2.752190e-02
 395,     3.7226,     14.305,    2.111876e-02
 396,     3.7105,     11.850,    2.166572e-01
 397,     3.7072,     12.496,    1.868140e-01
 398,     3.7040,     10.281,    1.232292e-01
 399,     3.6956,     13.431,    3.285629e-01
 400,     3.6915,     13.877,    1.048655e-01
 401,     3.6887,     14.700,    2.007118e-01
 402,     3.6776,     12.130,    6.224603e-02
 403,     3.6700,      9.017,    2.351813e-02
 404,     3.6620,      7.345,    1.918072e-02
 405,     3.6552,     14.700,    6.821374e-02
 406,     3.6466,     14.700,    8.709002e-02
 407,     3.6431,     14.700,    5.385872e-02
 408,     3.6309,     14.700,    1.840291e-02
 409,     3.6025,      7.430,    2.082351e-02
 410,     3.5968,     11.485,    4.721661e-02
 411,     3.5939,     10.868,    3.828840e-02
 412,     3.5791,     14.079,    1.168698e-01
 413,     3.5588,     13.821,    3.283255e-01
 414,     3.5508,      7.984,    4.423563e-02
 415,     3.5479,     12.043,    8.038223e-02
 416,     3.5441,     14.040,    2.911779e-01
 417,     3.5363,      7.570,    2.681544e-02
 418,     3.5332,     11.435,    5.310555e-02
 419,     3.5146,     14.700,    9.207585e-03
 420,     3.5001,     14.700,    7.756820e-03
 421,     3.4489,     14.700,    1.234955e-02
 422,     3.4419,     14.700,    8.919255e-03
 423,     3.4306,      6.336,    3.801606e-03
 424,     3.4244,     14.700,    1.301634e-02
 425,     3.4150,     14.700,    4.881156e-03
 426,     3.4095,      6.404,    2.373372e-03
 427,     3.4021,     14.700,    5.945692e-03
 428,     3.3829,     14.700,    5.532122e-03
 429,     3.3761,      4.029,    1.876093e-03
 430,     3.3706,      4.973,    2.218661e-03
 431,     3.3649,     14.700,    3.988177e-03
 432,     3.3443,     10.307,    1.042284e-02
 433,     3.3375,     11.833,    7.814843e-03
