index,   freq_ppm,   decay_hz, amplitude
   1,     9.0596,     14.700,    2.862294e-03
   2,     9.0409,     14.700,    2.337380e-03
   3,     9.0299,     14.700,    2.477238e-03
   4,     9.0227,      9.077,    1.755800e-03
   5,     9.0162,     14.700,    2.700484e-03
   6,     9.0028,     14.700,    2.606795e-03
   7,     8.9942,     14.700,    2.228225e-03
   8,     8.9826,     12.665,    2.365829e-03
   9,     8.9719,     14.700,    3.245728e-03
  10,     8.9619,     14.700,    1.537612e-03
  11,     8.9567,     11.996,    1.812738e-03
  12,     8.9478,     13.251,    1.768204e-03
  13,     8.9307,     14.700,    2.424983e-03
  14,     8.9237,     14.700,    3.518295e-03
  15,     8.9113,     14.700,    2.574663e-03
  16,     8.9018,     14.700,    1.948590e-03
  17,     8.8944,     14.700,    2.312048e-03
  18,     8.8728,     14.700,    2.190244e-03
  19,     8.8530,     14.700,    3.162715e-03
  20,     8.8409,     14.700,    2.724639e-03
  21,     8.8141,     14.700,    2.196650e-03
  22,     8.7952,     14.700,    2.562419e-03
  23,     8.7825,     14.551,    3.578328e-03
  24,     8.7746,     13.828,    2.024101e-03
  25,     8.7622,     14.143,    1.763526e-03
  26,     8.7465,     14.571,    3.339157e-03
  27,     8.7347,     13.736,    2.067948e-03
  28,     8.7255,     14.247,    2.588768e-03
  29,     8.7086,     14.700,    4.310869e-03
  30,     8.6865,     14.700,    4.520495e-03
  31,     8.6709,     14.700,    2.730916e-03
  32,     8.6598,     14.700,    1.785140e-03
  33,     8.6457,     14.700,    2.455629e-03
  34,     8.6309,     14.700,    2.345564e-03
  35,     8.6228,     14.700,    1.937191e-03
  36,     8.6072,     14.700,    2.960504e-03
  37,     8.5959,     14.612,    1.558338e-03
  38,     8.5873,      6.447,    1.345987e-03
  39,     8.5757,     14.700,    1.678542e-03
  40,     8.5639,     14.700,    1.208138e-02
  41,     8.5505,     14.700,    3.895330e-03
  42,     8.5380,     14.700,    3.949934e-03
  43,     8.5247,     14.700,    3.291979e-03
  44,     8.5133,     14.700,    3.460618e-03
  45,     8.5074,     10.871,    2.246283e-03
  46,     8.4471,      6.436,    1.625625e-01
  47,     8.4456,      5.885,    3.298209e-01
  48,     8.4440,      9.346,    2.301777e-01
  49,     8.4391,     14.700,    6.050684e-02
  50,     8.4320,     14.700,    2.923156e-02
  51,     8.4218,     14.700,    2.274948e-02
  52,     8.4050,     14.700,    2.030785e-02
  53,     8.3825,     14.700,    7.511990e-03
  54,     8.3703,     14.700,    5.763612e-03
  55,     8.3519,     14.700,    4.749479e-03
  56,     8.3359,     14.700,    4.046422e-03
  57,     8.3203,     14.700,    1.112147e-02
  58,     8.2946,     14.700,    3.583794e-03
  59,     8.2782,     14.700,    3.428743e-03
  60,     8.2652,      6.842,    1.893277e-03
  61,     8.2584,      8.122,    1.723469e-03
  62,     8.2505,     14.700,    1.541596e-03
  63,     8.2388,     14.700,    2.993859e-03
  64,     8.2232,     14.700,    3.084565e-03
  65,     8.2021,     14.700,    4.668744e-03
  66,     8.1864,     14.700,    2.640391e-03
  67,     8.1775,     14.700,    2.476176e-03
  68,     8.1654,     14.700,    3.697655e-03
  69,     8.1505,     14.700,    2.825549e-03
  70,     8.1415,     14.700,    2.187352e-03
  71,     8.1284,     14.700,    2.213520e-03
  72,     8.1176,     14.700,    2.679700e-03
  73,     8.1025,     14.700,    3.227218e-03
  74,     8.0910,     14.700,    2.372286e-03
  75,     8.0726,     14.700,    3.459340e-03
  76,     8.0518,     14.700,    3.058180e-03
  77,     8.0398,     14.700,    3.551964e-03
  78,     8.0269,     14.700,    2.501956e-03
  79,     8.0168,     14.700,    2.691815e-03
  80,     7.9960,     14.700,    2.681644e-03
  81,     7.9825,     14.700,    3.651000e-03
  82,     7.9587,     14.700,    2.576707e-03
  83,     7.9535,      6.975,    9.082434e-04
  84,     7.9493,      9.616,    2.929051e-04
  85,     7.9427,      8.107,    1.491516e-03
  86,     7.9377,      8.644,    1.062761e-03
  87,     7.9303,     14.700,    2.882980e-03
  88,     7.9173,     14.700,    2.018467e-03
  89,     7.9100,      6.065,    1.119582e-03
  90,     7.9041,     14.700,    1.979115e-03
  91,     7.8906,     14.700,    1.660456e-03
  92,     7.8815,     14.700,    2.388139e-03
  93,     7.8659,     14.700,    1.291260e-02
  94,     7.8563,     14.700,    1.622217e-02
  95,     7.8431,     14.700,    3.188693e-03
  96,     7.8319,     14.700,    3.290237e-03
  97,     7.8227,     14.700,    3.017047e-03
  98,     7.8048,     14.700,    2.775105e-03
  99,     7.7972,      8.950,    8.777443e-04
 100,     7.7893,     14.700,    1.362520e-03
 101,     7.7838,     12.965,    2.476422e-03
 102,     7.7741,     12.157,    2.282856e-03
 103,     7.7586,     14.700,    3.281998e-03
 104,     7.7500,     14.700,    3.419283e-03
 105,     7.7393,      8.206,    1.298771e-03
 106,     7.7320,     14.700,    1.212518e-03
 107,     7.7287,     14.700,    2.231204e-03
 108,     7.7156,      5.686,    9.681637e-04
 109,     7.7109,     14.700,    3.020199e-03
 110,     7.7001,     14.700,    3.249697e-03
 111,     7.6950,      3.070,    3.583047e-04
 112,     7.6915,     13.282,    1.679054e-03
 113,     7.6835,      8.592,    1.422488e-03
 114,     7.6752,     14.700,    2.558243e-03
 115,     7.6666,     14.700,    3.696960e-03
 116,     7.6380,     14.700,    3.132617e-03
 117,     7.6214,     14.700,    2.775760e-03
 118,     7.6074,     14.700,    2.509221e-03
 119,     7.5880,     14.700,    2.616353e-03
 120,     7.5750,     14.700,    3.093467e-03
 121,     7.5656,     14.700,    3.612003e-03
 122,     7.5540,     14.700,    4.997370e-03
 123,     7.5435,     14.700,    7.939022e-03
 124,     7.5345,     14.700,    3.412838e-03
 125,     7.5208,     14.700,    1.463382e-03
 126,     7.5001,      9.847,    1.222786e-03
 127,     7.4816,     14.700,    1.036609e-02
 128,     7.4726,     14.378,    1.635761e-02
 129,     7.4628,     14.700,    9.553340e-03
 130,     7.4449,     14.700,    2.796333e-03
 131,     7.4359,     12.750,    2.142114e-03
 132,     7.4290,     10.187,    1.960096e-03
 133,     7.4105,     14.700,    2.818723e-03
 134,     7.4001,     11.418,    1.413405e-03
 135,     7.3941,      7.386,    1.469120e-03
 136,     7.3858,      7.523,    1.298220e-03
 137,     7.3782,     14.700,    3.037499e-03
 138,     7.3695,     14.700,    3.063112e-03
 139,     7.3605,     14.700,    2.544122e-03
 140,     7.3391,     14.700,    3.145241e-03
 141,     7.3306,     14.700,    1.675454e-03
 142,     7.3170,     14.700,    1.576382e-03
 143,     7.3053,     14.700,    3.975188e-03
 144,     7.2985,     14.700,    1.704871e-03
 145,     7.2793,     14.700,    1.235661e-03
 146,     7.2735,     14.700,    2.294758e-03
 147,     7.2619,     14.700,    2.049582e-03
 148,     7.2488,     14.700,    2.171513e-03
 149,     7.2354,     14.700,    2.698462e-03
 150,     7.2276,     14.700,    1.288454e-03
 151,     7.2209,      6.120,    7.049829e-04
 152,     7.2130,     14.700,    3.332303e-03
 153,     7.1953,      8.311,    1.369520e-03
 154,     7.1894,     14.700,    1.515505e-03
 155,     7.1789,      7.080,    1.191496e-03
 156,     7.1720,      9.972,    1.813692e-03
 157,     7.1624,     14.700,    1.979436e-03
 158,     7.1527,      5.006,    5.304596e-04
 159,     7.1408,     14.700,    3.146732e-03
 160,     7.1285,     14.700,    1.701168e-03
 161,     7.1171,     14.700,    2.986568e-03
 162,     7.1061,      7.220,    1.207579e-03
 163,     7.0993,      3.386,    3.300560e-04
 164,     7.0925,      7.354,    9.660920e-04
 165,     7.0838,      0.000,    2.522629e-04
 166,     7.0790,     10.651,    4.881977e-03
 167,     7.0689,     13.200,    2.388327e-03
 168,     7.0633,     14.700,    2.686465e-03
 169,     7.0529,     14.700,    3.498479e-03
 170,     7.0400,     14.700,    2.219657e-03
 171,     7.0336,      7.618,    1.291632e-03
 172,     7.0173,     14.700,    2.300241e-03
 173,     7.0043,     14.700,    2.228994e-03
 174,     6.9967,     14.700,    2.347561e-03
 175,     6.9822,     11.910,    3.081262e-03
 176,     6.9745,     14.700,    1.288226e-03
 177,     6.9619,     14.700,    2.058393e-03
 178,     6.9544,      9.071,    9.657403e-04
 179,     6.9464,     14.700,    1.037506e-03
 180,     6.9389,     14.700,    2.527834e-03
 181,     6.9210,     14.700,    1.736306e-03
 182,     6.9121,     11.877,    2.294107e-03
 183,     6.9058,     14.070,    2.393200e-03
 184,     6.8960,      5.076,    9.724324e-04
 185,     6.8900,     11.304,    1.693732e-03
 186,     6.8834,      6.461,    1.345493e-03
 187,     6.8752,     10.442,    1.475008e-03
 188,     6.8661,     13.135,    2.017227e-03
 189,     6.8577,     11.338,    1.602067e-03
 190,     6.8525,     13.490,    2.418334e-03
 191,     6.8476,     14.700,    1.650435e-03
 192,     6.8389,     14.700,    1.744461e-03
 193,     6.8301,      6.755,    9.514345e-04
 194,     6.8240,     10.367,    1.733963e-03
 195,     6.8143,     12.486,    2.158775e-03
 196,     6.8049,     11.284,    9.654618e-04
 197,     6.8000,     13.950,    3.601390e-03
 198,     6.7943,      4.352,    9.198299e-04
 199,     6.7832,     11.008,    1.857766e-03
 200,     6.7807,     14.700,    3.259700e-03
 201,     6.7732,     14.700,    3.426418e-03
 202,     6.7607,     14.700,    3.579088e-03
 203,     6.7408,     14.700,    3.374571e-03
 204,     6.7321,     14.700,    2.582989e-03
 205,     6.7194,     14.700,    3.693199e-03
 206,     6.7084,     14.700,    3.136435e-03
 207,     6.6972,     14.700,    4.875997e-03
 208,     6.6798,     14.700,    3.978371e-03
 209,     6.6637,     14.700,    4.081704e-03
 210,     6.6350,     14.700,    4.212623e-03
 211,     6.6184,     14.700,    3.250582e-03
 212,     6.6085,     14.700,    3.734153e-03
 213,     6.5960,     14.700,    3.125424e-03
 214,     6.5760,     14.700,    1.656371e-03
 215,     6.5684,     14.700,    2.868450e-03
 216,     6.5571,     14.700,    2.927315e-03
 217,     6.5490,     14.700,    6.643297e-04
 218,     6.5409,      9.419,    1.638913e-03
 219,     6.5327,     14.700,    2.344232e-03
 220,     6.5202,     14.700,    1.635609e-03
 221,     6.5118,     14.700,    3.248639e-03
 222,     6.4971,     14.700,    2.187911e-03
 223,     6.4856,      8.829,    1.714854e-03
 224,     6.4783,      4.597,    5.534221e-04
 225,     6.4749,      8.405,    1.069858e-03
 226,     6.4701,     13.458,    2.758138e-03
 227,     6.4616,      4.715,    8.262053e-04
 228,     6.4534,      5.435,    8.241996e-04
 229,     6.4447,     13.373,    2.202592e-03
 230,     6.4380,      0.183,    1.660559e-04
 231,     6.4353,     10.672,    2.968300e-03
 232,     6.4310,      0.000,    1.536466e-04
 233,     6.4267,      6.310,    1.026717e-03
 234,     6.4156,      2.647,    2.996179e-04
 235,     6.4081,     14.700,    1.934878e-03
 236,     6.4006,      4.481,    5.963086e-04
 237,     6.3941,     14.700,    3.143823e-03
 238,     6.3790,     11.810,    2.261771e-03
 239,     6.3706,      8.194,    1.478646e-03
 240,     6.3634,     11.581,    3.896636e-03
 241,     6.3590,     11.359,    1.705457e-03
 242,     6.3536,      8.197,    4.986869e-04
 243,     6.3463,     14.700,    3.386637e-03
 244,     6.3291,     14.700,    2.554702e-03
 245,     6.3109,     14.700,    2.135748e-03
 246,     6.3012,      6.456,    8.669391e-04
 247,     6.2926,     14.700,    2.103448e-03
 248,     6.2753,     14.700,    1.986407e-03
 249,     6.2568,     14.700,    2.655882e-03
 250,     6.2472,     14.700,    1.548975e-03
 251,     6.2389,      7.557,    9.444131e-04
 252,     6.2256,     13.117,    2.525060e-03
 253,     6.2198,     11.183,    1.668466e-03
 254,     6.2124,     14.700,    3.662218e-03
 255,     6.1994,     14.700,    2.904822e-03
 256,     6.1772,     14.700,    3.025561e-03
 257,     6.1553,     14.700,    3.777542e-03
 258,     6.1439,     14.700,    3.122342e-03
 259,     6.1274,     14.700,    3.358088e-03
 260,     6.1146,     14.700,    2.989509e-03
 261,     6.1032,     14.700,    3.546968e-03
 262,     6.0889,     14.700,    2.471466e-03
 263,     6.0702,     14.700,    2.020803e-03
 264,     6.0520,     14.700,    2.659976e-03
 265,     6.0335,     14.700,    1.984212e-03
 266,     6.0169,     14.700,    2.847770e-03
 267,     6.0053,     14.700,    2.979045e-03
 268,     5.9934,     14.700,    2.314924e-03
 269,     5.9860,      6.119,    7.402301e-04
 270,     5.9781,     14.700,    2.101761e-03
 271,     5.9704,      6.992,    1.496233e-03
 272,     5.9634,     14.700,    2.323760e-03
 273,     5.9479,     13.668,    2.968551e-03
 274,     5.9407,     10.481,    1.517740e-03
 275,     5.9342,      9.846,    2.072186e-03
 276,     5.9273,     11.193,    2.573343e-03
 277,     5.9180,      7.878,    1.845097e-03
 278,     5.9105,      6.776,    1.178795e-03
 279,     5.9028,     14.700,    2.417174e-03
 280,     5.8882,     14.700,    1.416594e-03
 281,     5.8788,     14.700,    3.269855e-03
 282,     5.8702,     13.256,    2.712206e-03
 283,     5.8636,     14.700,    3.265464e-03
 284,     5.8498,     14.700,    1.414542e-03
 285,     5.8350,     14.700,    2.490348e-03
 286,     5.8212,     14.700,    2.452507e-03
 287,     5.7976,     14.700,    2.670973e-03
 288,     5.7853,     14.700,    1.976571e-03
 289,     5.7731,     14.700,    2.318767e-03
 290,     5.7669,      4.394,    8.322618e-04
 291,     5.7600,     14.700,    3.051085e-03
 292,     5.7516,      6.047,    9.801402e-04
 293,     5.7481,      0.497,    1.557535e-04
 294,     5.7435,      8.569,    2.009715e-03
 295,     5.7300,     14.700,    3.322964e-03
 296,     5.7174,     14.700,    1.973234e-03
 297,     5.7045,     14.700,    3.069470e-03
 298,     5.6918,     14.700,    1.366091e-03
 299,     5.6806,     14.700,    1.307036e-03
 300,     5.6634,     14.700,    1.343225e-03
 301,     5.6552,     14.700,    2.301947e-03
 302,     5.6433,     14.700,    2.509068e-03
 303,     5.6314,     14.700,    2.740367e-03
 304,     5.6160,     14.700,    2.877961e-03
 305,     5.6100,     14.700,    2.636504e-03
 306,     5.5945,     14.700,    4.002022e-03
 307,     5.5850,     14.700,    2.523677e-03
 308,     5.5737,     14.700,    2.786817e-03
 309,     5.5604,     14.700,    2.621553e-03
 310,     5.5491,     14.700,    2.855393e-03
 311,     5.5389,     14.700,    4.744364e-03
 312,     5.5234,     14.700,    4.512463e-03
 313,     5.5043,     14.700,    2.919285e-03
 314,     5.4939,     14.700,    2.714043e-03
 315,     5.4804,     14.700,    1.743960e-03
 316,     5.4719,     14.700,    3.076661e-03
 317,     5.4528,     14.700,    2.188841e-03
 318,     5.4421,     14.700,    2.142519e-03
 319,     5.4201,     14.700,    2.456352e-03
 320,     5.4120,     14.700,    1.895623e-03
 321,     5.4047,      7.476,    1.129529e-03
 322,     5.3993,     14.700,    1.420465e-03
 323,     5.3912,      9.731,    1.515907e-03
 324,     5.3880,      6.802,    8.333474e-04
 325,     5.3778,     14.700,    1.647544e-03
 326,     5.3683,      8.578,    1.225275e-03
 327,     5.3632,      4.954,    1.147126e-03
 328,     5.3535,     14.700,    3.250720e-03
 329,     5.3426,     14.700,    4.243278e-03
 330,     5.3318,     14.700,    2.802801e-03
 331,     5.3066,     14.700,    3.111271e-03
 332,     5.2882,     14.700,    3.856747e-03
 333,     5.2725,     14.700,    3.170303e-03
 334,     5.2608,     14.700,    2.347847e-03
 335,     5.2450,     14.700,    2.388780e-03
 336,     5.2285,     14.700,    4.227676e-03
 337,     5.2178,     14.700,    2.181074e-03
 338,     5.1992,     10.490,    1.199159e-03
 339,     5.1912,     14.049,    2.074797e-03
 340,     5.1839,     14.082,    1.556656e-03
 341,     5.1775,     14.700,    2.052326e-03
 342,     5.1460,     14.700,    4.221099e-03
 343,     5.1297,     14.700,    3.161004e-03
 344,     5.1029,     14.700,    2.666955e-03
 345,     5.0883,     14.700,    2.633747e-03
 346,     5.0725,     14.700,    3.325175e-03
 347,     5.0554,     14.700,    4.695531e-03
 348,     5.0316,     14.700,    2.608736e-03
 349,     5.0025,     11.542,    2.602624e-03
 350,     4.9949,     14.700,    9.258310e-04
 351,     4.9849,     14.700,    6.318685e-04
 352,     4.9766,     11.203,    1.774783e-03
 353,     4.9655,     11.878,    2.441266e-03
 354,     4.9582,     11.861,    2.573578e-03
 355,     4.9474,     14.700,    3.339399e-03
 356,     4.9353,     14.700,    4.028397e-03
 357,     4.9214,     14.700,    2.349948e-03
 358,     4.9116,      6.236,    7.725760e-04
 359,     4.9022,     14.700,    3.405073e-03
 360,     4.8933,     14.700,    3.192482e-03
 361,     4.8856,     14.700,    2.439471e-03
 362,     4.8721,     14.700,    3.125613e-03
 363,     4.8629,     14.700,    2.188599e-03
 364,     4.8407,     14.700,    2.391094e-02
 365,     4.8303,     14.700,    2.312167e-02
 366,     4.8182,     14.700,    2.504088e-02
 367,     4.8051,     14.700,    2.391431e-02
 368,     4.7912,     14.700,    2.898171e-02
 369,     4.7768,      5.332,    6.780023e-02
 370,     4.7696,     14.700,    3.668609e-02
 371,     4.7616,     14.700,    3.217053e-02
 372,     4.7521,     14.700,    2.861571e-02
 373,     4.7421,     14.700,    2.868701e-02
 374,     4.7275,     14.700,    3.176955e-03
 375,     4.7021,     14.700,    3.073092e-03
 376,     4.6940,     14.700,    2.662161e-03
 377,     4.6806,     14.700,    1.392032e-03
 378,     4.6549,     14.700,    1.758053e-03
 379,     4.6475,     13.442,    1.506650e-03
 380,     4.6371,     14.700,    2.496039e-03
 381,     4.6256,      9.216,    1.794651e-03
 382,     4.6189,      5.301,    7.810409e-04
 383,     4.6143,     14.700,    1.818765e-03
 384,     4.6076,     10.762,    2.115326e-03
 385,     4.5946,     14.500,    2.410194e-03
 386,     4.5811,     14.414,    2.472282e-03
 387,     4.5657,     14.479,    2.757371e-03
 388,     4.5564,     14.478,    2.997595e-03
 389,     4.5484,     14.548,    3.821763e-03
 390,     4.5373,     14.571,    2.556718e-03
 391,     4.5296,      4.719,    6.873499e-04
 392,     4.5231,      9.495,    1.311362e-03
 393,     4.5165,     11.034,    1.385775e-03
 394,     4.5046,     12.472,    2.125502e-03
 395,     4.4957,     14.700,    3.781268e-03
 396,     4.4842,     14.700,    2.897640e-03
 397,     4.4756,      1.319,    3.775317e-04
 398,     4.4682,      5.848,    7.521459e-04
 399,     4.4642,      5.589,    1.248642e-03
 400,     4.4504,     14.700,    2.812488e-03
 401,     4.4379,     14.700,    2.669701e-03
 402,     4.4285,     14.700,    2.428449e-03
 403,     4.4090,     14.700,    4.083789e-03
 404,     4.3962,     14.700,    3.276953e-03
 405,     4.3824,     14.700,    3.059199e-03
 406,     4.3677,     13.962,    2.414384e-03
 407,     4.3614,     14.700,    3.206055e-03
 408,     4.3527,     14.700,    3.588841e-03
 409,     4.3438,     14.700,    3.857591e-03
 410,     4.3257,     14.700,    4.012067e-03
 411,     4.3176,     14.700,    3.443345e-03
 412,     4.3058,     14.700,    5.034865e-03
 413,     4.2935,     14.700,    4.206508e-03
 414,     4.2811,     14.700,    3.676383e-03
 415,     4.2702,     14.700,    4.887733e-03
 416,     4.2578,     14.700,    2.843090e-03
 417,     4.2415,     14.700,    2.567412e-03
 418,     4.2300,     14.700,    1.980848e-03
 419,     4.2142,     14.700,    1.905231e-03
 420,     4.2022,     10.268,    1.384671e-03
 421,     4.1943,     10.643,    2.594153e-03
 422,     4.1883,     14.700,    4.727960e-03
 423,     4.1790,     14.700,    6.303137e-03
 424,     4.1735,     14.700,    5.502155e-03
 425,     4.1676,     14.700,    5.702066e-03
 426,     4.1566,     14.700,    4.076819e-03
 427,     4.1480,     14.700,    2.832787e-03
 428,     4.1367,     14.700,    1.331957e-03
 429,     4.1185,     14.700,    2.115990e-03
 430,     4.1117,      4.615,    6.567346e-04
 431,     4.1024,     14.700,    3.864626e-03
 432,     4.0955,     12.487,    1.490612e-03
 433,     4.0880,     14.700,    2.758777e-03
