index,   freq_ppm,   decay_hz, amplitude
   1,     9.0829,     14.700,    3.635087e-03
   2,     9.0533,     14.700,    3.053847e-03
   3,     9.0287,     14.700,    4.076939e-03
   4,     9.0083,     14.700,    3.581614e-03
   5,     8.9815,     14.700,    4.236460e-03
   6,     8.9560,     14.700,    3.472273e-03
   7,     8.9413,     14.700,    4.482316e-03
   8,     8.9171,     14.700,    2.233431e-03
   9,     8.9050,     14.700,    2.145858e-03
  10,     8.8918,     14.700,    3.250667e-03
  11,     8.8761,     14.700,    3.067366e-03
  12,     8.8583,     14.700,    2.662923e-03
  13,     8.8493,     14.700,    2.328823e-03
  14,     8.8363,     14.700,    2.655603e-03
  15,     8.8276,     14.700,    3.228100e-03
  16,     8.8180,     14.700,    2.134899e-03
  17,     8.8076,     14.700,    2.928847e-03
  18,     8.7989,      5.710,    1.456826e-03
  19,     8.7883,     14.700,    3.314777e-03
  20,     8.7763,     14.700,    3.535419e-03
  21,     8.7701,     10.438,    2.005014e-03
  22,     8.7610,     14.700,    1.863136e-03
  23,     8.7493,     14.700,    2.130219e-03
  24,     8.7411,      7.149,    1.402762e-03
  25,     8.7322,     11.547,    2.351769e-03
  26,     8.7196,      5.559,    1.674973e-03
  27,     8.7108,     14.700,    3.216215e-03
  28,     8.7032,      6.347,    9.862018e-04
  29,     8.6964,     10.506,    1.687348e-03
  30,     8.6891,     14.700,    2.454825e-03
  31,     8.6737,     14.700,    3.033868e-03
  32,     8.6631,     10.692,    1.908469e-03
  33,     8.6554,      8.749,    9.626867e-04
  34,     8.6465,      7.999,    1.245173e-03
  35,     8.6379,     10.232,    1.617749e-03
  36,     8.6298,     14.242,    2.168298e-03
  37,     8.6199,     14.700,    1.955967e-03
  38,     8.6129,     14.700,    2.491380e-03
  39,     8.6047,      5.024,    9.727819e-04
  40,     8.5956,     14.700,    3.547709e-03
  41,     8.5854,     14.700,    2.272710e-03
  42,     8.5774,     14.700,    2.223346e-03
  43,     8.5691,      5.271,    1.388770e-03
  44,     8.5642,     10.499,    2.302991e-03
  45,     8.5588,      8.224,    1.406339e-03
  46,     8.5526,      4.494,    7.880703e-04
  47,     8.5453,      7.880,    1.675998e-03
  48,     8.5387,     14.700,    2.664071e-03
  49,     8.5310,     10.038,    2.033022e-03
  50,     8.5242,      4.721,    8.519916e-04
  51,     8.5162,      9.807,    1.813861e-03
  52,     8.4464,      7.256,    7.805903e-02
  53,     8.4449,      8.964,    1.191182e-01
  54,     8.4389,     14.700,    1.646805e-02
  55,     8.4301,     14.700,    9.527855e-03
  56,     8.4192,     14.700,    7.959800e-03
  57,     8.4000,     14.700,    6.373974e-03
  58,     8.3865,     14.700,    5.812618e-03
  59,     8.3767,     14.700,    3.101040e-03
  60,     8.3667,     14.700,    4.011579e-03
  61,     8.3528,     14.700,    4.457433e-03
  62,     8.3461,      6.573,    9.955841e-04
  63,     8.3397,      5.405,    1.071925e-03
  64,     8.3340,     14.700,    3.080537e-03
  65,     8.3197,     14.700,    3.935450e-03
  66,     8.3079,     14.700,    3.103647e-03
  67,     8.2878,     14.700,    2.194239e-03
  68,     8.2739,     14.700,    2.822223e-03
  69,     8.2595,     14.700,    3.186930e-03
  70,     8.2426,     14.700,    2.143846e-03
  71,     8.2343,     14.700,    3.032517e-03
  72,     8.2250,     14.700,    3.493643e-03
  73,     8.2132,     14.700,    2.822051e-03
  74,     8.2032,     14.700,    2.274404e-03
  75,     8.1953,      6.364,    1.573770e-03
  76,     8.1864,     14.700,    3.778885e-03
  77,     8.1730,     14.700,    4.196307e-03
  78,     8.1603,     14.700,    3.674916e-03
  79,     8.1473,     14.700,    3.129814e-03
  80,     8.1407,      5.555,    1.433170e-03
  81,     8.1287,     14.700,    3.463257e-03
  82,     8.1190,     14.700,    3.680366e-03
  83,     8.1098,      7.073,    1.719126e-03
  84,     8.1001,      8.223,    2.714525e-03
  85,     8.0950,      3.347,    1.142717e-03
  86,     8.0830,     14.700,    4.178849e-03
  87,     8.0363,     14.700,    4.988149e-03
  88,     8.0107,     14.700,    4.123420e-03
  89,     7.9850,     14.700,    3.648380e-03
  90,     7.9632,     14.700,    3.922269e-03
  91,     7.9476,     14.700,    3.989998e-03
  92,     7.9171,     14.700,    3.971785e-03
  93,     7.9035,     14.700,    2.190369e-03
  94,     7.8884,     14.700,    3.712930e-03
  95,     7.8654,     14.700,    7.138862e-03
  96,     7.8562,     14.700,    7.363879e-03
  97,     7.8469,     14.700,    2.761593e-03
  98,     7.8361,     14.700,    2.277720e-03
  99,     7.8245,     14.700,    2.472547e-03
 100,     7.8089,     14.700,    3.860544e-03
 101,     7.7915,     14.700,    5.115173e-03
 102,     7.7774,     14.700,    4.389509e-03
 103,     7.7561,     14.700,    5.111051e-03
 104,     7.7288,     14.700,    4.932272e-03
 105,     7.7039,     14.700,    4.270012e-03
 106,     7.6863,      9.867,    2.467746e-03
 107,     7.6764,      8.031,    1.637652e-03
 108,     7.6708,      5.728,    6.321766e-04
 109,     7.6653,      7.204,    1.418059e-03
 110,     7.6599,      6.462,    1.720978e-03
 111,     7.6525,      4.907,    1.094344e-03
 112,     7.6430,      6.776,    1.044134e-03
 113,     7.6354,     14.700,    2.000028e-03
 114,     7.6227,      7.439,    1.491004e-03
 115,     7.6152,     14.700,    2.902404e-03
 116,     7.5968,     14.700,    2.823484e-03
 117,     7.5692,     14.700,    3.823867e-03
 118,     7.5440,     14.700,    4.635901e-03
 119,     7.5328,     14.700,    4.298599e-03
 120,     7.4829,     14.700,    5.924710e-03
 121,     7.4730,     14.700,    9.014430e-03
 122,     7.4623,     14.700,    5.262906e-03
 123,     7.4533,      3.172,    1.008925e-03
 124,     7.4481,     10.556,    1.205894e-03
 125,     7.4405,      5.788,    1.217399e-03
 126,     7.4330,      6.430,    1.482496e-03
 127,     7.4264,      9.060,    1.754133e-03
 128,     7.4171,     14.700,    1.577033e-03
 129,     7.4043,     14.700,    2.806088e-03
 130,     7.3909,     14.700,    2.937041e-03
 131,     7.3822,     14.700,    1.753874e-03
 132,     7.3669,     14.700,    3.246684e-03
 133,     7.3537,     14.700,    2.457286e-03
 134,     7.3339,     14.700,    2.612148e-03
 135,     7.3163,     14.700,    3.868735e-03
 136,     7.3019,     14.700,    2.826155e-03
 137,     7.2926,     10.021,    1.781152e-03
 138,     7.2839,     14.197,    2.972235e-03
 139,     7.2742,     14.700,    2.591637e-03
 140,     7.2666,      9.086,    1.971939e-03
 141,     7.2569,     14.700,    2.700515e-03
 142,     7.2458,     14.700,    3.155140e-03
 143,     7.2325,     10.961,    2.759469e-03
 144,     7.2245,     10.924,    1.524179e-03
 145,     7.2129,     14.700,    2.925551e-03
 146,     7.2034,     14.700,    2.623927e-03
 147,     7.1939,      5.103,    1.306055e-03
 148,     7.1871,     14.700,    2.652981e-03
 149,     7.1792,      8.597,    1.870084e-03
 150,     7.1717,      9.744,    1.086328e-03
 151,     7.1640,      9.021,    1.665154e-03
 152,     7.1581,      8.265,    2.021457e-03
 153,     7.1445,     12.961,    3.174257e-03
 154,     7.1384,      7.716,    1.447608e-03
 155,     7.1316,     12.537,    2.488450e-03
 156,     7.1220,     12.964,    1.886892e-03
 157,     7.1158,     13.606,    3.166240e-03
 158,     7.1054,     13.921,    2.779549e-03
 159,     7.0971,     14.700,    2.143619e-03
 160,     7.0902,      4.376,    8.908862e-04
 161,     7.0794,     14.700,    5.642766e-03
 162,     7.0592,      6.363,    1.644069e-03
 163,     7.0501,     14.700,    2.739225e-03
 164,     7.0374,     14.700,    2.779168e-03
 165,     7.0322,     11.815,    2.360099e-03
 166,     7.0228,     11.806,    2.148653e-03
 167,     7.0152,      7.437,    1.282428e-03
 168,     7.0069,     14.700,    3.485937e-03
 169,     6.9904,     14.700,    2.832390e-03
 170,     6.9821,     11.575,    2.199928e-03
 171,     6.9746,      6.346,    1.217787e-03
 172,     6.9693,      5.212,    1.336707e-03
 173,     6.9629,      5.454,    1.816569e-03
 174,     6.9503,     14.700,    3.145621e-03
 175,     6.9395,     14.700,    2.466582e-03
 176,     6.9267,     14.700,    3.380562e-03
 177,     6.9107,     14.700,    2.961411e-03
 178,     6.8911,     14.700,    3.758390e-03
 179,     6.8822,     14.700,    3.880728e-03
 180,     6.8749,     14.700,    3.073019e-03
 181,     6.8625,     14.700,    2.558350e-03
 182,     6.8528,     14.700,    2.173457e-03
 183,     6.8439,     14.700,    2.802055e-03
 184,     6.8326,      5.701,    1.470273e-03
 185,     6.8224,     14.700,    3.153276e-03
 186,     6.8036,     14.700,    2.680511e-03
 187,     6.7823,     14.700,    2.964620e-03
 188,     6.7664,     14.700,    4.754093e-03
 189,     6.7428,     14.700,    3.658229e-03
 190,     6.7258,     14.700,    4.343726e-03
 191,     6.7116,     14.700,    4.170689e-03
 192,     6.6893,     14.700,    4.184945e-03
 193,     6.6678,     14.700,    3.718135e-03
 194,     6.6484,     14.700,    3.468014e-03
 195,     6.6319,     14.700,    3.737834e-03
 196,     6.6162,     14.700,    3.767675e-03
 197,     6.5972,     14.700,    3.452612e-03
 198,     6.5696,     14.700,    4.642914e-03
 199,     6.5305,     14.700,    3.788726e-03
 200,     6.5081,     14.700,    4.399152e-03
 201,     6.4958,     14.700,    3.232685e-03
 202,     6.4804,     14.700,    3.407830e-03
 203,     6.4686,     14.700,    3.366251e-03
 204,     6.4545,     14.700,    3.948114e-03
 205,     6.4392,      7.435,    1.795901e-03
 206,     6.4330,      6.398,    1.443842e-03
 207,     6.4251,     14.700,    2.232119e-03
 208,     6.4174,      7.432,    1.264991e-03
 209,     6.4097,     14.700,    3.272211e-03
 210,     6.3960,     14.700,    2.974998e-03
 211,     6.3804,     14.700,    3.574524e-03
 212,     6.3624,     14.700,    4.645932e-03
 213,     6.3490,     14.700,    3.611907e-03
 214,     6.3333,     14.700,    4.092181e-03
 215,     6.3117,     14.700,    4.127997e-03
 216,     6.2986,     14.700,    3.812404e-03
 217,     6.2908,      7.649,    1.665296e-03
 218,     6.2845,     12.509,    2.551086e-03
 219,     6.2761,     14.700,    2.684582e-03
 220,     6.2681,     14.700,    2.598485e-03
 221,     6.2544,     14.700,    2.401425e-03
 222,     6.2429,     14.700,    2.305322e-03
 223,     6.2374,     14.700,    2.339447e-03
 224,     6.2240,     14.700,    2.854400e-03
 225,     6.2117,     14.700,    3.752945e-03
 226,     6.1976,     14.700,    3.449979e-03
 227,     6.1855,     14.700,    1.885391e-03
 228,     6.1722,     14.700,    3.510896e-03
 229,     6.1621,     11.949,    3.278629e-03
 230,     6.1492,     14.700,    4.116539e-03
 231,     6.1410,      5.546,    9.636860e-04
 232,     6.1359,     14.700,    3.299000e-03
 233,     6.1289,      6.003,    1.339413e-03
 234,     6.1234,      4.801,    1.348354e-03
 235,     6.1131,     14.700,    2.862867e-03
 236,     6.1061,     10.212,    1.808291e-03
 237,     6.0956,     14.700,    2.142599e-03
 238,     6.0878,     14.700,    2.160496e-03
 239,     6.0782,      8.090,    1.695435e-03
 240,     6.0740,      6.958,    8.286519e-04
 241,     6.0682,     12.195,    2.267408e-03
 242,     6.0583,     13.562,    2.355285e-03
 243,     6.0493,     14.700,    1.394809e-03
 244,     6.0427,      5.074,    9.574419e-04
 245,     6.0355,      5.106,    1.064497e-03
 246,     6.0260,     14.700,    2.490255e-03
 247,     6.0137,     14.700,    2.594038e-03
 248,     6.0072,     14.700,    3.135865e-03
 249,     5.9880,     14.700,    3.129402e-03
 250,     5.9733,     14.700,    2.081055e-03
 251,     5.9652,     14.700,    2.404694e-03
 252,     5.9462,     14.700,    3.143178e-03
 253,     5.9196,     14.700,    3.086665e-03
 254,     5.9046,      8.015,    1.653022e-03
 255,     5.8889,     14.700,    2.897230e-03
 256,     5.8815,      3.427,    1.117829e-03
 257,     5.8759,      4.830,    1.431917e-03
 258,     5.8665,     14.700,    2.729724e-03
 259,     5.8565,      5.327,    1.141940e-03
 260,     5.8489,     11.698,    2.592005e-03
 261,     5.8399,     12.384,    1.840948e-03
 262,     5.8348,      3.244,    3.768939e-04
 263,     5.8313,      5.196,    1.122673e-03
 264,     5.8240,     14.700,    2.268099e-03
 265,     5.8078,     14.700,    2.344169e-03
 266,     5.7934,     14.700,    3.280946e-03
 267,     5.7846,      5.486,    1.305555e-03
 268,     5.7720,     14.700,    1.811761e-03
 269,     5.7537,     14.700,    3.004429e-03
 270,     5.7435,     14.700,    2.656872e-03
 271,     5.7287,     10.791,    2.051806e-03
 272,     5.7181,     11.349,    1.155419e-03
 273,     5.7109,      5.651,    1.132092e-03
 274,     5.7018,     14.700,    2.894195e-03
 275,     5.6922,     14.700,    2.408077e-03
 276,     5.6786,     14.700,    2.354495e-03
 277,     5.6714,      4.237,    1.147935e-03
 278,     5.6520,     14.700,    3.084343e-03
 279,     5.6368,     14.700,    1.807845e-03
 280,     5.6272,     14.700,    2.744415e-03
 281,     5.6109,     14.700,    2.625598e-03
 282,     5.5965,     11.563,    1.495557e-03
 283,     5.5914,     14.700,    3.434909e-03
 284,     5.5791,     14.700,    2.642700e-03
 285,     5.5694,     14.700,    3.517016e-03
 286,     5.5604,     14.700,    3.135610e-03
 287,     5.5477,     14.700,    2.426711e-03
 288,     5.5373,     12.153,    2.742380e-03
 289,     5.5292,     14.700,    3.350260e-03
 290,     5.5252,      2.688,    8.857614e-04
 291,     5.5185,      9.365,    2.312305e-03
 292,     5.5065,     14.700,    1.888470e-03
 293,     5.5004,      4.314,    9.628189e-04
 294,     5.4898,     14.700,    4.422482e-03
 295,     5.4735,     14.700,    3.418000e-03
 296,     5.4539,     14.700,    3.506950e-03
 297,     5.4316,     14.700,    3.955208e-03
 298,     5.4089,     14.700,    3.605368e-03
 299,     5.3886,     14.700,    3.087977e-03
 300,     5.3736,     14.700,    3.907070e-03
 301,     5.3531,     14.700,    3.840860e-03
 302,     5.3228,     14.700,    3.316268e-03
 303,     5.3060,     14.700,    3.394442e-03
 304,     5.2892,     14.700,    3.046350e-03
 305,     5.2624,     14.700,    2.891328e-03
 306,     5.2339,     14.700,    3.801957e-03
 307,     5.2277,      5.165,    1.429547e-03
 308,     5.2188,     14.700,    2.592227e-03
 309,     5.2034,     14.700,    3.070865e-03
 310,     5.1947,     14.700,    2.982457e-03
 311,     5.1863,     14.700,    2.426176e-03
 312,     5.1650,      7.413,    2.065185e-03
 313,     5.1573,      3.914,    7.035190e-04
 314,     5.1512,     13.317,    2.152032e-03
 315,     5.1446,      7.529,    1.759209e-03
 316,     5.1250,     14.673,    4.432028e-03
 317,     5.1037,     14.661,    4.123594e-03
 318,     5.0872,     14.620,    3.700416e-03
 319,     5.0737,     14.378,    2.609254e-03
 320,     5.0620,     14.186,    2.618295e-03
 321,     5.0513,     14.662,    3.706394e-03
 322,     5.0393,     14.700,    3.348836e-03
 323,     5.0289,     14.700,    2.744831e-03
 324,     5.0127,     14.700,    2.899790e-03
 325,     5.0023,     14.700,    3.188395e-03
 326,     4.9919,     14.700,    2.167941e-03
 327,     4.9776,      8.359,    1.508329e-03
 328,     4.9727,      7.317,    8.833833e-04
 329,     4.9635,     14.700,    2.567908e-03
 330,     4.9524,      6.906,    1.664778e-03
 331,     4.9466,      8.440,    2.082774e-03
 332,     4.9348,     14.700,    2.830662e-03
 333,     4.9242,     14.700,    1.427054e-03
 334,     4.9112,     14.700,    2.980708e-03
 335,     4.9012,     14.700,    2.392119e-03
 336,     4.8885,     14.700,    2.514213e-03
 337,     4.8770,     14.700,    4.823435e-02
 338,     4.8477,     14.700,    4.716050e-02
 339,     4.8224,     14.700,    4.567840e-02
 340,     4.7981,     14.700,    4.466893e-02
 341,     4.7800,     14.700,    5.763992e-02
 342,     4.7720,      6.432,    3.611013e-02
 343,     4.7561,     14.700,    5.552019e-02
 344,     4.7378,     14.700,    4.602573e-02
 345,     4.7187,     14.700,    4.548326e-02
 346,     4.6991,     14.700,    4.458255e-02
 347,     4.6807,     14.700,    4.335311e-02
 348,     4.6628,     14.700,    4.354813e-02
 349,     4.6431,     14.700,    4.773491e-02
 350,     4.6345,     11.485,    2.638893e-03
 351,     4.6287,      3.538,    1.160573e-03
 352,     4.6210,      5.215,    9.639646e-04
 353,     4.6105,      6.992,    1.498605e-03
 354,     4.5963,     14.700,    3.254936e-03
 355,     4.5900,      7.816,    1.718749e-03
 356,     4.5806,     14.700,    1.599806e-03
 357,     4.5747,     14.700,    1.623104e-03
 358,     4.5662,     14.700,    2.606310e-03
 359,     4.5573,     14.700,    3.520711e-03
 360,     4.5435,     14.700,    2.611310e-03
 361,     4.5317,     14.700,    1.986365e-03
 362,     4.5215,     14.700,    2.217361e-03
 363,     4.5103,     14.700,    3.962820e-03
 364,     4.5006,     14.700,    2.600597e-03
 365,     4.4934,      6.319,    1.214143e-03
 366,     4.4871,     12.386,    2.234184e-03
 367,     4.4776,     11.089,    1.522708e-03
 368,     4.4712,      7.037,    1.185116e-03
 369,     4.4672,      9.256,    2.153496e-03
 370,     4.4585,     14.700,    3.997657e-03
 371,     4.4435,     14.700,    4.093061e-03
 372,     4.4237,     14.700,    4.407663e-03
 373,     4.4021,     14.700,    4.143531e-03
 374,     4.3816,     14.700,    5.187009e-03
 375,     4.3608,     14.700,    5.436174e-03
 376,     4.3437,     14.700,    3.963533e-03
 377,     4.3357,     14.700,    2.240373e-03
 378,     4.3238,     14.700,    2.636331e-03
 379,     4.3102,     14.700,    3.937156e-03
 380,     4.2950,     14.700,    3.161871e-03
 381,     4.2848,     14.700,    3.072167e-03
 382,     4.2720,      5.134,    1.222869e-03
 383,     4.2679,      3.503,    5.976453e-04
 384,     4.2620,     14.700,    1.990997e-03
 385,     4.2547,      4.923,    8.888688e-04
 386,     4.2479,      7.070,    1.102660e-03
 387,     4.2357,     14.700,    2.648330e-03
 388,     4.2276,     14.700,    2.780506e-03
 389,     4.2136,     14.700,    2.437226e-03
 390,     4.1947,     14.700,    3.020038e-03
 391,     4.1818,     11.788,    2.524734e-03
 392,     4.1741,      9.811,    1.989867e-03
 393,     4.1636,     14.700,    3.383045e-03
 394,     4.1564,      5.900,    7.742308e-04
 395,     4.1514,      3.955,    9.979707e-04
 396,     4.1453,      5.891,    1.714633e-03
 397,     4.1375,     10.333,    2.004279e-03
 398,     4.1286,     14.700,    3.370550e-03
 399,     4.1174,     14.700,    2.673288e-03
 400,     4.1105,     12.338,    2.218779e-03
 401,     4.1033,     12.322,    4.875503e-03
 402,     4.0940,     14.700,    4.849989e-03
 403,     4.0830,     14.700,    3.397957e-03
 404,     4.0691,      6.203,    1.259442e-03
 405,     4.0627,      8.547,    1.560152e-03
 406,     4.0562,     14.700,    1.637845e-03
 407,     4.0444,     14.700,    3.434372e-03
 408,     4.0192,     14.700,    2.928220e-03
 409,     3.9948,     14.700,    2.659460e-03
 410,     3.9745,     14.700,    3.030395e-03
 411,     3.9655,     14.700,    2.546388e-03
 412,     3.9542,     10.286,    8.794605e-03
 413,     3.9418,     14.700,    3.634138e-03
 414,     3.9253,     14.700,    2.834798e-03
 415,     3.9049,     14.700,    3.900709e-03
 416,     3.8918,     14.700,    2.900578e-03
 417,     3.8788,     14.700,    2.988080e-03
 418,     3.8617,     14.700,    3.587868e-03
 419,     3.8511,      8.257,    1.506455e-03
 420,     3.8451,     12.624,    2.577410e-03
 421,     3.8387,      2.663,    7.504572e-04
 422,     3.8300,     10.247,    2.729871e-03
 423,     3.8226,     14.700,    5.165882e-03
 424,     3.8165,     14.700,    2.962427e-03
 425,     3.8110,     14.700,    4.472822e-03
 426,     3.8046,     14.700,    4.954566e-03
 427,     3.7952,      3.208,    1.035648e-03
 428,     3.7891,      8.151,    1.853235e-03
 429,     3.7839,     14.700,    4.154941e-03
 430,     3.7736,     14.700,    3.127964e-03
 431,     3.7646,     14.700,    2.960770e-03
 432,     3.7525,     14.700,    3.269513e-03
 433,     3.7351,     14.700,    4.094367e-03
