index,   freq_ppm,   decay_hz, amplitude
   1,     9.0959,     11.222,    2.715060e-03
   2,     9.0882,     14.700,    4.387595e-03
   3,     9.0753,     14.700,    3.433246e-03
   4,     9.0668,      6.399,    1.570281e-03
   5,     9.0591,      6.332,    1.789494e-03
   6,     9.0498,     14.700,    5.325581e-03
   7,     9.0396,     14.700,    6.537949e-03
   8,     9.0235,     14.700,    3.792324e-03
   9,     9.0070,     14.700,    5.051875e-03
  10,     8.9738,     14.700,    3.911753e-03
  11,     8.9319,      8.292,    7.051311e-02
  12,     8.9301,      7.393,    6.738211e-02
  13,     8.9280,      9.800,    1.212138e-01
  14,     8.9249,     14.700,    3.448700e-02
  15,     8.9178,     14.700,    1.448301e-02
  16,     8.9060,     14.700,    8.126373e-03
  17,     8.8898,     14.700,    5.725527e-03
  18,     8.8694,     13.175,    4.343434e-03
  19,     8.8584,     13.025,    4.002715e-03
  20,     8.8513,      9.009,    1.840165e-03
  21,     8.8420,      7.320,    1.166138e-03
  22,     8.8315,     14.700,    3.882891e-03
  23,     8.8150,     14.700,    1.026636e-02
  24,     8.8080,     14.700,    5.257370e-03
  25,     8.7977,      5.274,    1.645784e-03
  26,     8.7900,     10.561,    2.883229e-03
  27,     8.7790,     14.700,    6.484167e-03
  28,     8.7689,     14.700,    7.895196e-03
  29,     8.7517,     14.700,    6.233027e-03
  30,     8.7384,     14.700,    3.963235e-03
  31,     8.7272,     14.700,    5.643854e-03
  32,     8.7076,      7.781,    6.084022e-02
  33,     8.7055,      9.053,    1.009800e-01
  34,     8.7015,     12.243,    7.945792e-02
  35,     8.6994,     14.424,    1.967275e-01
  36,     8.6906,     14.700,    1.501504e-02
  37,     8.6742,     14.700,    1.137948e-02
  38,     8.6543,     14.700,    1.021661e-02
  39,     8.6438,     11.293,    3.357979e-03
  40,     8.6342,     12.569,    3.379091e-03
  41,     8.6260,     14.700,    3.529730e-03
  42,     8.6182,     14.700,    4.952126e-03
  43,     8.6030,     14.700,    6.607500e-03
  44,     8.5907,     14.700,    5.880974e-03
  45,     8.5829,     13.797,    6.716923e-03
  46,     8.5758,     10.938,    1.387354e-03
  47,     8.5696,     14.700,    3.275531e-03
  48,     8.5611,     14.700,    2.689518e-03
  49,     8.5526,      6.591,    1.086563e-03
  50,     8.5405,     14.700,    5.382557e-03
  51,     8.5296,     14.700,    4.942608e-03
  52,     8.5197,     14.700,    4.366769e-03
  53,     8.5040,     14.700,    2.900879e-03
  54,     8.4931,     14.700,    4.791091e-03
  55,     8.4725,     14.700,    3.683174e-03
  56,     8.4459,      9.828,    7.606649e-02
  57,     8.4402,     14.700,    5.731259e-03
  58,     8.4322,     14.700,    4.181975e-03
  59,     8.4187,     14.700,    4.125280e-03
  60,     8.4038,     14.700,    4.551614e-03
  61,     8.3955,     14.700,    3.404691e-03
  62,     8.3862,     14.700,    3.398215e-03
  63,     8.3700,     14.700,    3.953699e-03
  64,     8.3611,      4.648,    1.964808e-03
  65,     8.3495,     13.848,    6.115970e-03
  66,     8.3405,     12.546,    4.918087e-03
  67,     8.3339,     14.700,    4.991775e-03
  68,     8.3276,      7.784,    2.116824e-03
  69,     8.3190,      7.172,    2.966827e-03
  70,     8.3107,     14.700,    5.674960e-03
  71,     8.2470,      7.082,    4.440237e-02
  72,     8.2448,      7.170,    6.760515e-02
  73,     8.2426,      9.895,    8.971556e-02
  74,     8.2358,     14.700,    1.496504e-01
  75,     8.2332,     14.700,    1.546337e-01
  76,     8.2175,     14.700,    5.734349e-03
  77,     8.2113,     14.047,    6.625660e-03
  78,     8.2026,     10.159,    4.340777e-03
  79,     8.1940,     14.700,    3.862583e-03
  80,     8.1834,     12.514,    2.745056e-03
  81,     8.1741,     14.146,    2.333225e-03
  82,     8.1661,     14.700,    2.547482e-03
  83,     8.1547,      9.223,    1.805685e-03
  84,     8.1407,     14.700,    4.419308e-03
  85,     8.1297,     14.700,    4.795914e-03
  86,     8.1172,      7.976,    1.297849e-03
  87,     8.1134,      4.771,    5.571045e-04
  88,     8.1090,     14.700,    4.883243e-03
  89,     8.0976,     11.299,    3.110946e-03
  90,     8.0869,     10.610,    2.649126e-03
  91,     8.0753,     13.824,    4.008248e-03
  92,     8.0614,     14.700,    3.210238e-03
  93,     8.0514,     13.786,    3.135956e-03
  94,     8.0411,      7.278,    2.355055e-03
  95,     8.0280,     14.700,    2.829799e-03
  96,     8.0148,     14.700,    4.348103e-03
  97,     7.9997,     14.700,    4.624268e-03
  98,     7.9724,     14.700,    4.879443e-03
  99,     7.9635,     14.700,    3.303326e-03
 100,     7.9485,     14.700,    4.371289e-03
 101,     7.9402,     14.700,    3.250711e-03
 102,     7.9303,     14.700,    4.320976e-03
 103,     7.9141,     14.700,    4.174112e-03
 104,     7.9045,     14.700,    3.697629e-03
 105,     7.8847,     14.700,    2.977895e-03
 106,     7.8710,     14.700,    4.470005e-03
 107,     7.8643,     14.700,    5.394049e-03
 108,     7.8545,     14.700,    3.574175e-03
 109,     7.8438,     14.700,    2.574633e-03
 110,     7.8304,     14.700,    3.339565e-03
 111,     7.8171,     14.700,    4.730050e-03
 112,     7.8050,     14.700,    3.508603e-03
 113,     7.7868,     14.700,    4.143158e-03
 114,     7.7746,     14.700,    2.622244e-03
 115,     7.7612,      7.468,    2.306084e-03
 116,     7.7526,     14.700,    3.052113e-03
 117,     7.7352,     14.700,    3.337053e-03
 118,     7.7217,     14.700,    3.814347e-03
 119,     7.7071,     14.700,    4.933355e-03
 120,     7.6973,     14.700,    5.711351e-03
 121,     7.6880,     14.700,    8.139648e-03
 122,     7.6771,     14.700,    6.326353e-03
 123,     7.6629,     14.700,    5.022995e-03
 124,     7.6517,     14.700,    4.312322e-03
 125,     7.6432,     10.109,    2.868798e-03
 126,     7.6328,     14.700,    4.293103e-03
 127,     7.6199,     14.700,    2.761237e-03
 128,     7.6119,      3.369,    1.346505e-03
 129,     7.5947,      6.212,    4.793554e-02
 130,     7.5930,      7.481,    6.910945e-02
 131,     7.5876,     12.357,    1.746880e-01
 132,     7.5839,     11.446,    1.555553e-01
 133,     7.5775,     13.009,    1.885133e-01
 134,     7.5644,     14.700,    1.072358e-02
 135,     7.5437,     14.700,    8.942672e-03
 136,     7.5379,     13.254,    4.702550e-03
 137,     7.5297,     12.521,    1.966766e-03
 138,     7.5230,      8.292,    2.647866e-03
 139,     7.5166,      8.409,    3.197076e-03
 140,     7.5079,     10.281,    3.618448e-03
 141,     7.4966,      6.592,    9.286971e-04
 142,     7.4878,     13.998,    4.300374e-03
 143,     7.4805,      5.404,    2.060886e-03
 144,     7.4769,     12.915,    4.639032e-03
 145,     7.4711,     13.424,    6.573237e-03
 146,     7.4623,      8.157,    2.576000e-03
 147,     7.4571,      4.468,    6.750901e-04
 148,     7.4524,      8.012,    1.822700e-03
 149,     7.4429,      7.699,    1.421178e-03
 150,     7.4406,      4.936,    1.020162e-03
 151,     7.4344,      4.320,    8.571501e-04
 152,     7.4280,      6.705,    2.055297e-03
 153,     7.4238,      6.278,    2.242881e-03
 154,     7.4188,     14.700,    7.377940e-03
 155,     7.4053,     14.700,    6.612971e-03
 156,     7.3865,     14.700,    4.805230e-03
 157,     7.3704,     14.700,    5.535152e-03
 158,     7.3499,     14.700,    5.165332e-03
 159,     7.3375,     14.700,    6.921079e-03
 160,     7.3091,     14.700,    5.281000e-03
 161,     7.2814,     14.700,    3.304905e-03
 162,     7.2703,     14.700,    5.911082e-03
 163,     7.2578,     14.700,    4.171179e-03
 164,     7.2457,     10.163,    3.429145e-03
 165,     7.2363,     14.700,    3.574392e-03
 166,     7.2265,     14.700,    3.807704e-03
 167,     7.2166,     14.700,    3.375349e-03
 168,     7.2077,     14.700,    4.216965e-03
 169,     7.1900,      7.907,    2.109621e-03
 170,     7.1787,     14.700,    3.800423e-03
 171,     7.1694,      9.228,    2.046193e-03
 172,     7.1601,     13.984,    2.491822e-03
 173,     7.1515,     14.700,    2.167020e-03
 174,     7.1407,     14.700,    1.510559e-03
 175,     7.1299,     14.700,    2.516412e-03
 176,     7.1191,     13.735,    2.292892e-03
 177,     7.1074,     14.700,    2.930753e-03
 178,     7.0918,     14.700,    3.312003e-03
 179,     7.0814,     14.700,    6.787336e-03
 180,     7.0731,     14.700,    4.298304e-03
 181,     7.0546,     14.700,    3.926617e-03
 182,     7.0422,     14.700,    3.450591e-03
 183,     7.0288,     14.700,    3.608914e-03
 184,     7.0154,     14.700,    4.359823e-03
 185,     7.0033,     14.700,    3.478868e-03
 186,     6.9942,      8.945,    3.052785e-03
 187,     6.9853,      7.573,    2.290523e-03
 188,     6.9772,     14.700,    2.753817e-03
 189,     6.9666,     14.700,    3.720112e-03
 190,     6.9556,     12.612,    2.142774e-03
 191,     6.9475,     14.700,    3.700065e-03
 192,     6.9387,     13.510,    3.613632e-03
 193,     6.9319,     13.430,    3.814977e-03
 194,     6.9252,     13.863,    3.540372e-03
 195,     6.9067,     13.840,    4.191022e-03
 196,     6.8890,     14.424,    5.053942e-03
 197,     6.8766,     14.700,    3.850704e-03
 198,     6.8575,     14.700,    4.270248e-03
 199,     6.8480,     14.700,    4.870935e-03
 200,     6.8309,     14.700,    4.648354e-03
 201,     6.8134,     14.700,    3.925599e-03
 202,     6.8005,     14.700,    3.821514e-03
 203,     6.7796,     14.700,    5.516988e-03
 204,     6.7689,     14.700,    4.378679e-03
 205,     6.7580,     14.700,    4.916965e-03
 206,     6.7477,     14.700,    3.018184e-03
 207,     6.7412,     14.700,    3.240744e-03
 208,     6.7273,     14.700,    4.731662e-03
 209,     6.7205,      9.367,    2.448156e-03
 210,     6.7088,     12.916,    3.924127e-03
 211,     6.6959,     11.391,    3.448077e-03
 212,     6.6880,     12.465,    1.952994e-03
 213,     6.6811,     13.582,    2.477612e-03
 214,     6.6700,     12.981,    2.693544e-03
 215,     6.6583,     14.700,    5.328491e-03
 216,     6.6487,     14.700,    5.410966e-03
 217,     6.6319,     14.700,    4.935161e-03
 218,     6.6260,      4.024,    1.143078e-03
 219,     6.6203,      7.228,    2.533069e-03
 220,     6.6139,     12.968,    4.290553e-03
 221,     6.6046,      8.938,    2.694995e-03
 222,     6.5934,     14.700,    3.568691e-03
 223,     6.5856,     14.700,    3.127295e-03
 224,     6.5770,     14.700,    5.242948e-03
 225,     6.5676,     14.700,    3.770387e-03
 226,     6.5557,     14.700,    3.252466e-03
 227,     6.5442,     14.700,    3.190476e-03
 228,     6.5286,     12.294,    4.149053e-03
 229,     6.5201,      7.447,    1.859107e-03
 230,     6.5030,     14.700,    4.487491e-03
 231,     6.4937,     12.543,    2.996635e-03
 232,     6.4853,      9.580,    3.047908e-03
 233,     6.4756,     14.700,    2.312200e-03
 234,     6.4638,     14.700,    4.971416e-03
 235,     6.4458,     14.700,    3.245100e-03
 236,     6.4356,     14.700,    3.870327e-03
 237,     6.4176,     14.700,    4.178373e-03
 238,     6.4011,     14.700,    4.401231e-03
 239,     6.3771,     14.700,    4.878529e-03
 240,     6.3656,     14.700,    6.366125e-03
 241,     6.3478,     14.700,    3.703348e-03
 242,     6.3354,     14.700,    3.421252e-03
 243,     6.3225,     14.700,    3.145961e-03
 244,     6.3143,     12.733,    3.289581e-03
 245,     6.3069,      7.230,    1.305109e-03
 246,     6.3000,      8.571,    2.666642e-03
 247,     6.2925,      5.707,    2.025788e-03
 248,     6.2770,     14.700,    4.595636e-03
 249,     6.2661,     14.063,    2.832764e-03
 250,     6.2565,     14.700,    3.084190e-03
 251,     6.2466,     14.700,    4.012530e-03
 252,     6.2343,     14.700,    4.226022e-03
 253,     6.2222,     14.700,    4.767999e-03
 254,     6.2089,     14.700,    2.782554e-03
 255,     6.1916,     14.700,    3.422214e-03
 256,     6.1664,     14.700,    4.151141e-03
 257,     6.1484,     14.700,    2.981952e-03
 258,     6.1197,     14.700,    4.777478e-03
 259,     6.0886,     14.700,    3.731144e-03
 260,     6.0705,      5.649,    1.566433e-03
 261,     6.0643,     14.700,    2.758848e-03
 262,     6.0582,      1.350,    3.461342e-04
 263,     6.0525,     11.174,    2.502394e-03
 264,     6.0429,      5.332,    1.592749e-03
 265,     6.0283,     14.700,    5.842667e-03
 266,     5.9949,     14.700,    4.631741e-03
 267,     5.9717,     14.700,    4.750453e-03
 268,     5.9586,     14.700,    5.073582e-03
 269,     5.9327,     14.700,    5.161621e-03
 270,     5.9188,     14.700,    3.781459e-03
 271,     5.9118,      6.994,    1.727306e-03
 272,     5.9037,     14.700,    4.157449e-03
 273,     5.8916,     14.700,    3.720018e-03
 274,     5.8776,     14.700,    3.681175e-03
 275,     5.8708,     14.700,    3.840980e-03
 276,     5.8622,      3.855,    1.339981e-03
 277,     5.8571,      4.917,    1.958163e-03
 278,     5.8502,      8.514,    2.114111e-03
 279,     5.8392,     14.700,    2.692515e-03
 280,     5.8274,     14.700,    2.223518e-03
 281,     5.8187,      6.496,    1.806940e-03
 282,     5.8093,     14.700,    3.442698e-03
 283,     5.7968,      7.964,    2.329679e-03
 284,     5.7871,      5.603,    2.056780e-03
 285,     5.7777,      5.514,    1.129343e-03
 286,     5.7736,     14.700,    3.303485e-03
 287,     5.7603,      9.801,    2.409228e-03
 288,     5.7504,     14.700,    3.463345e-03
 289,     5.7338,     14.700,    2.961972e-03
 290,     5.7260,     14.700,    3.013067e-03
 291,     5.7158,      3.937,    1.003514e-03
 292,     5.7059,     14.700,    5.101776e-03
 293,     5.6967,     12.357,    1.748231e-03
 294,     5.6876,      6.036,    1.395385e-03
 295,     5.6824,      4.133,    1.165751e-03
 296,     5.6739,     10.451,    2.768034e-03
 297,     5.6641,     14.700,    3.301950e-03
 298,     5.6563,     14.700,    3.467353e-03
 299,     5.6467,     14.700,    4.288164e-03
 300,     5.6332,     14.700,    4.934891e-03
 301,     5.6181,     14.700,    4.937608e-03
 302,     5.6071,     11.310,    2.831670e-03
 303,     5.6004,      9.126,    2.850270e-03
 304,     5.5971,      0.070,    2.283057e-04
 305,     5.5906,      7.049,    1.301693e-03
 306,     5.5864,      9.555,    2.030081e-03
 307,     5.5782,     14.700,    4.460603e-03
 308,     5.5706,      2.815,    6.555390e-04
 309,     5.5657,     12.001,    3.807019e-03
 310,     5.5549,     13.368,    4.746117e-03
 311,     5.5497,      1.343,    5.145259e-04
 312,     5.5428,     11.482,    3.422406e-03
 313,     5.5311,     14.700,    2.799944e-03
 314,     5.5178,      9.200,    1.424361e-03
 315,     5.5116,      9.074,    2.165289e-03
 316,     5.5010,     14.700,    3.271838e-03
 317,     5.4869,      7.371,    2.221605e-03
 318,     5.4689,     14.700,    3.918335e-03
 319,     5.4562,      9.968,    1.934525e-03
 320,     5.4424,     14.700,    3.617720e-03
 321,     5.4258,     14.700,    3.623066e-03
 322,     5.4158,     14.203,    2.811199e-03
 323,     5.4068,      8.522,    2.108180e-03
 324,     5.3969,     14.700,    3.493958e-03
 325,     5.3860,     11.860,    2.494338e-03
 326,     5.3723,     14.700,    3.299805e-03
 327,     5.3648,     14.700,    4.926536e-03
 328,     5.3457,     14.700,    4.179476e-03
 329,     5.3329,     14.700,    4.947679e-03
 330,     5.3129,     14.700,    3.889701e-03
 331,     5.2951,     14.700,    3.521996e-03
 332,     5.2809,     14.700,    4.807194e-03
 333,     5.2644,     14.700,    3.912320e-03
 334,     5.2566,     14.700,    5.378717e-03
 335,     5.2433,     14.700,    2.879210e-03
 336,     5.2300,     13.716,    2.775905e-03
 337,     5.2240,     14.700,    3.918643e-03
 338,     5.2130,     14.700,    5.209755e-03
 339,     5.2029,     14.700,    4.679335e-03
 340,     5.1946,      6.580,    1.588887e-03
 341,     5.1900,     11.070,    2.425751e-03
 342,     5.1824,      7.162,    1.788245e-03
 343,     5.1732,     14.700,    4.552879e-03
 344,     5.1627,      4.053,    1.442964e-03
 345,     5.1555,     14.700,    3.987636e-03
 346,     5.1444,     14.700,    3.913887e-03
 347,     5.1242,     14.700,    3.360013e-03
 348,     5.1104,     12.414,    4.645259e-03
 349,     5.1020,      8.483,    2.775378e-03
 350,     5.0913,      9.913,    2.880328e-03
 351,     5.0828,      9.239,    2.191261e-03
 352,     5.0778,      9.262,    1.325006e-03
 353,     5.0720,      3.680,    4.438750e-04
 354,     5.0670,     14.700,    3.365053e-03
 355,     5.0587,     14.700,    3.603472e-03
 356,     5.0434,     14.700,    5.270169e-03
 357,     5.0314,     14.700,    4.888854e-03
 358,     5.0179,     14.700,    4.338229e-03
 359,     5.0073,     14.700,    4.330053e-03
 360,     4.9818,     14.700,    4.305085e-03
 361,     4.9753,      4.748,    1.182889e-03
 362,     4.9691,      6.965,    2.334140e-03
 363,     4.9622,      6.018,    7.676868e-04
 364,     4.9536,      8.398,    1.243530e-03
 365,     4.9506,      5.796,    1.297072e-03
 366,     4.9428,     14.700,    4.838740e-03
 367,     4.9315,     14.700,    3.991436e-03
 368,     4.9201,     14.700,    3.216316e-03
 369,     4.9072,     14.700,    2.933955e-03
 370,     4.8993,     14.700,    2.765417e-03
 371,     4.8889,     14.700,    5.023379e-03
 372,     4.8809,     14.700,    4.672882e-03
 373,     4.8682,     14.700,    3.912862e-03
 374,     4.8561,     14.700,    5.222915e-03
 375,     4.8421,     14.700,    5.092293e-03
 376,     4.8331,     14.700,    3.242253e-03
 377,     4.8251,     14.700,    1.593579e-02
 378,     4.8163,     14.700,    1.590884e-02
 379,     4.8078,     14.700,    1.475723e-02
 380,     4.7997,     14.700,    1.393756e-02
 381,     4.7914,     14.700,    1.271489e-02
 382,     4.7750,     14.700,    5.274710e-02
 383,     4.7638,     14.700,    2.987027e-02
 384,     4.7565,     14.700,    2.690025e-02
 385,     4.7497,     14.700,    2.226355e-02
 386,     4.7425,     14.700,    1.892081e-02
 387,     4.7356,     14.700,    1.835860e-02
 388,     4.7261,     14.700,    5.208991e-03
 389,     4.7160,     14.700,    5.345447e-03
 390,     4.7019,     14.700,    3.553323e-03
 391,     4.6912,     14.700,    3.632365e-03
 392,     4.6825,     11.225,    2.572128e-03
 393,     4.6737,      6.297,    1.676602e-03
 394,     4.6679,      5.359,    1.682105e-03
 395,     4.6619,      7.634,    2.262921e-03
 396,     4.6513,     14.700,    3.334380e-03
 397,     4.6372,     14.700,    4.367500e-03
 398,     4.6238,      9.118,    3.336522e-03
 399,     4.6079,     14.700,    3.352192e-03
 400,     4.5957,     14.700,    2.626951e-03
 401,     4.5832,      3.782,    1.178177e-03
 402,     4.5764,      9.072,    2.621447e-03
 403,     4.5654,     14.700,    3.658391e-03
 404,     4.5473,     10.831,    3.892392e-03
 405,     4.5314,     14.700,    3.162598e-03
 406,     4.5165,     14.700,    2.749363e-03
 407,     4.5058,     14.700,    1.972739e-03
 408,     4.4928,     14.700,    4.335856e-03
 409,     4.4795,     14.700,    3.112120e-03
 410,     4.4622,     14.700,    4.074195e-03
 411,     4.4449,     14.700,    4.930356e-03
 412,     4.4329,     14.700,    4.281702e-03
 413,     4.4247,     14.700,    3.840009e-03
 414,     4.4141,     11.272,    2.373711e-03
 415,     4.4081,      6.436,    1.695742e-03
 416,     4.4024,     14.700,    2.801795e-03
 417,     4.3930,     14.700,    3.816247e-03
 418,     4.3771,     14.700,    3.735876e-03
 419,     4.3700,     14.272,    3.143988e-03
 420,     4.3620,     14.218,    3.496291e-03
 421,     4.3486,     14.532,    4.192716e-03
 422,     4.3108,     14.667,    5.476652e-03
 423,     4.2876,     14.637,    4.059541e-03
 424,     4.2708,     14.634,    5.001646e-03
 425,     4.2582,     14.700,    4.210503e-03
 426,     4.2379,     14.700,    4.806518e-03
 427,     4.2192,     14.700,    4.644927e-03
 428,     4.2061,     14.700,    5.100935e-03
 429,     4.1931,     14.700,    3.252473e-03
 430,     4.1833,      9.357,    2.602276e-03
 431,     4.1450,     11.795,    7.761204e-02
 432,     4.1405,     13.317,    1.021864e-01
 433,     4.1299,     12.801,    9.708311e-02
