index,   freq_ppm,   decay_hz, amplitude
   1,     9.0909,     14.700,    2.978136e-03
   2,     9.0697,     14.700,    3.939808e-03
   3,     9.0547,     14.700,    3.482487e-03
   4,     9.0341,     14.700,    3.189339e-03
   5,     9.0180,     14.700,    2.864776e-03
   6,     8.9888,     14.700,    3.661962e-03
   7,     8.9604,     14.700,    3.360558e-03
   8,     8.9451,     14.700,    1.800212e-03
   9,     8.9281,     14.700,    2.985467e-03
  10,     8.9127,     14.700,    2.633580e-03
  11,     8.8971,     14.700,    1.758378e-03
  12,     8.8855,     14.700,    3.473071e-03
  13,     8.8698,     14.700,    2.555361e-03
  14,     8.8501,     13.699,    1.815210e-03
  15,     8.8401,     14.700,    2.098254e-03
  16,     8.8333,      9.257,    7.168095e-04
  17,     8.8283,     11.988,    1.373469e-03
  18,     8.8227,     14.359,    1.231525e-03
  19,     8.8062,     14.700,    1.984647e-03
  20,     8.7978,     14.700,    1.764110e-03
  21,     8.7934,     14.700,    1.201554e-03
  22,     8.7869,     14.700,    1.695645e-03
  23,     8.7768,     11.685,    1.275851e-03
  24,     8.7739,     14.700,    2.681821e-03
  25,     8.7511,     14.700,    2.797133e-03
  26,     8.7368,     14.700,    1.831773e-03
  27,     8.7233,     14.700,    2.439304e-03
  28,     8.7120,     14.700,    2.049091e-03
  29,     8.6967,     14.700,    3.008347e-03
  30,     8.6808,     14.700,    2.398315e-03
  31,     8.6641,     14.700,    1.796569e-03
  32,     8.6552,     14.700,    1.686873e-03
  33,     8.6464,     14.700,    9.526609e-04
  34,     8.6360,     14.700,    2.108122e-03
  35,     8.6273,     14.170,    2.409418e-03
  36,     8.6128,     14.700,    2.799770e-03
  37,     8.6041,     14.700,    1.509915e-03
  38,     8.5928,     14.700,    2.002799e-03
  39,     8.5850,     14.700,    2.213126e-03
  40,     8.5734,      7.923,    1.205295e-03
  41,     8.5641,      8.496,    2.720164e-03
  42,     8.5601,      0.201,    1.150868e-04
  43,     8.5508,     14.700,    1.296973e-03
  44,     8.5454,      6.717,    7.535265e-04
  45,     8.5357,     14.700,    2.931954e-03
  46,     8.5275,     14.700,    1.567867e-03
  47,     8.5118,     14.700,    2.543805e-03
  48,     8.5061,     14.700,    1.894998e-03
  49,     8.4969,     14.700,    9.775603e-04
  50,     8.4470,      6.395,    7.392663e-02
  51,     8.4456,      5.872,    1.472561e-01
  52,     8.4441,      9.652,    1.150499e-01
  53,     8.4388,     14.700,    2.590166e-02
  54,     8.4295,     14.700,    1.097433e-02
  55,     8.4153,     14.700,    7.817650e-03
  56,     8.3853,     14.700,    6.650037e-03
  57,     8.3466,     14.700,    1.314693e-03
  58,     8.3415,     14.154,    1.513063e-03
  59,     8.3331,      8.495,    1.160872e-03
  60,     8.3285,      8.978,    9.248960e-04
  61,     8.3208,     10.518,    3.957800e-03
  62,     8.3066,     14.700,    2.518520e-03
  63,     8.2987,     14.700,    1.863543e-03
  64,     8.2919,      9.620,    4.199175e-04
  65,     8.2822,     14.700,    1.751802e-03
  66,     8.2735,     14.700,    1.464732e-03
  67,     8.2611,     12.827,    1.251538e-03
  68,     8.2526,     14.700,    1.482232e-03
  69,     8.2428,     14.700,    2.442141e-03
  70,     8.2344,     14.700,    8.694253e-04
  71,     8.2148,     14.700,    1.212141e-03
  72,     8.2100,      5.319,    4.518599e-04
  73,     8.2000,     14.700,    1.339187e-03
  74,     8.1927,     14.700,    2.280733e-03
  75,     8.1757,     14.700,    1.963643e-03
  76,     8.1642,     10.743,    1.577008e-03
  77,     8.1575,     14.609,    1.119306e-03
  78,     8.1512,      9.446,    1.185920e-03
  79,     8.1417,      8.136,    9.917100e-04
  80,     8.1331,     14.700,    8.229967e-04
  81,     8.1225,      9.775,    9.763500e-04
  82,     8.1071,     14.700,    1.444645e-03
  83,     8.0911,     14.700,    2.220832e-03
  84,     8.0732,     14.700,    1.436345e-03
  85,     8.0653,     14.700,    1.554679e-03
  86,     8.0504,     14.700,    1.880178e-03
  87,     8.0401,     14.700,    1.810618e-03
  88,     8.0223,      9.938,    4.042630e-03
  89,     8.0198,     14.700,    4.710215e-03
  90,     8.0061,     14.700,    1.806598e-03
  91,     7.9832,     14.700,    1.376148e-03
  92,     7.9659,     14.700,    3.016533e-03
  93,     7.9573,      6.469,    7.634197e-04
  94,     7.9488,      7.332,    6.735376e-04
  95,     7.9394,     14.700,    2.682145e-03
  96,     7.9315,     14.700,    1.525518e-03
  97,     7.9207,     14.700,    1.583056e-03
  98,     7.9022,     14.700,    2.738204e-03
  99,     7.8881,     14.700,    2.108868e-03
 100,     7.8771,     14.700,    1.844349e-03
 101,     7.8669,     14.700,    1.870813e-03
 102,     7.8473,     14.700,    1.280233e-03
 103,     7.8368,     14.700,    2.803322e-03
 104,     7.8205,      7.060,    1.128279e-03
 105,     7.8071,     14.700,    1.517978e-03
 106,     7.7919,     14.700,    1.157609e-03
 107,     7.7855,     14.700,    2.040540e-03
 108,     7.7759,     12.118,    1.057646e-03
 109,     7.7612,     14.700,    2.938928e-03
 110,     7.7493,     14.700,    3.360956e-03
 111,     7.7330,     14.700,    3.273342e-03
 112,     7.7232,     14.700,    3.412612e-03
 113,     7.7013,     14.700,    2.795426e-03
 114,     7.6924,     14.700,    3.029958e-03
 115,     7.6744,     14.700,    3.176359e-03
 116,     7.6562,     14.700,    2.209669e-03
 117,     7.6431,     14.700,    1.804582e-03
 118,     7.6330,     14.700,    3.465634e-03
 119,     7.6240,     14.700,    3.358222e-03
 120,     7.6067,     14.700,    2.912202e-03
 121,     7.5959,     14.700,    1.013839e-03
 122,     7.5879,      5.354,    5.604108e-04
 123,     7.5789,     13.040,    2.260706e-03
 124,     7.5677,     14.700,    1.832753e-03
 125,     7.5574,     14.700,    2.064154e-03
 126,     7.5470,     14.700,    1.970811e-03
 127,     7.5367,     14.700,    1.555932e-03
 128,     7.5265,     14.700,    2.062432e-03
 129,     7.4997,     14.700,    1.805294e-03
 130,     7.4845,     14.700,    2.121589e-03
 131,     7.4738,     14.700,    3.756873e-03
 132,     7.4630,     14.700,    2.544114e-03
 133,     7.4427,     14.700,    2.279792e-03
 134,     7.4213,     14.700,    2.549324e-03
 135,     7.4096,     14.700,    2.158024e-03
 136,     7.3911,     14.700,    3.083986e-03
 137,     7.3678,     13.917,    2.938953e-03
 138,     7.3548,     14.700,    1.429307e-03
 139,     7.3453,     14.700,    2.432818e-03
 140,     7.3398,     14.700,    2.318194e-03
 141,     7.3288,     14.684,    1.525342e-03
 142,     7.3198,     14.700,    1.767837e-03
 143,     7.3027,     14.700,    2.011758e-03
 144,     7.2957,     14.700,    1.634596e-03
 145,     7.2853,     14.700,    2.013846e-03
 146,     7.2761,      7.176,    7.923106e-04
 147,     7.2662,     13.704,    1.694881e-03
 148,     7.2527,     14.700,    1.520469e-03
 149,     7.2435,     14.700,    7.888932e-04
 150,     7.2337,     14.700,    2.029782e-03
 151,     7.2202,      8.225,    8.596543e-04
 152,     7.2152,     14.700,    2.646872e-03
 153,     7.1991,     14.700,    2.513921e-03
 154,     7.1903,     14.700,    1.601462e-03
 155,     7.1772,     14.700,    1.805384e-03
 156,     7.1608,     14.700,    2.208131e-03
 157,     7.1472,     14.700,    3.294371e-03
 158,     7.1311,     14.700,    2.654695e-03
 159,     7.1290,      0.000,    8.171707e-05
 160,     7.1254,      8.639,    1.302394e-03
 161,     7.1173,     10.804,    8.263583e-04
 162,     7.1050,     10.035,    1.168169e-03
 163,     7.0969,     14.700,    2.472293e-03
 164,     7.0891,     14.700,    1.711928e-03
 165,     7.0795,     14.700,    4.679463e-03
 166,     7.0736,     14.700,    1.702769e-03
 167,     7.0557,     14.700,    2.932185e-03
 168,     7.0404,     14.700,    2.962703e-03
 169,     7.0303,     14.700,    2.312015e-03
 170,     7.0116,     14.700,    2.545759e-03
 171,     7.0012,     14.700,    1.753418e-03
 172,     6.9884,     14.700,    1.840920e-03
 173,     6.9766,     14.700,    1.822059e-03
 174,     6.9612,     14.700,    2.915722e-03
 175,     6.9440,     14.700,    3.080169e-03
 176,     6.9356,      3.270,    2.627201e-04
 177,     6.9307,     13.946,    3.227538e-03
 178,     6.9256,      9.353,    7.880543e-04
 179,     6.9097,     14.700,    2.033989e-03
 180,     6.9041,     14.700,    2.021968e-03
 181,     6.8851,     14.700,    2.305674e-03
 182,     6.8741,     14.700,    2.170071e-03
 183,     6.8412,     14.700,    3.230860e-03
 184,     6.8286,     14.700,    2.220553e-03
 185,     6.8140,     14.700,    2.523338e-03
 186,     6.7958,     14.700,    2.323177e-03
 187,     6.7801,     13.667,    2.042642e-03
 188,     6.7756,     13.383,    2.135737e-03
 189,     6.7596,     13.430,    1.995561e-03
 190,     6.7492,     13.604,    1.969476e-03
 191,     6.7366,     13.350,    2.109446e-03
 192,     6.7280,     14.700,    3.432377e-03
 193,     6.7086,     14.700,    3.234967e-03
 194,     6.6969,     12.437,    1.393438e-03
 195,     6.6914,     10.916,    1.052766e-03
 196,     6.6818,     14.700,    1.085278e-03
 197,     6.6712,     12.733,    1.972936e-03
 198,     6.6604,     14.700,    2.079231e-03
 199,     6.6547,     12.639,    1.409679e-03
 200,     6.6481,     14.112,    2.537212e-03
 201,     6.6421,     14.033,    1.610614e-03
 202,     6.6351,      8.697,    1.041993e-03
 203,     6.6229,     14.700,    2.484364e-03
 204,     6.6154,     14.700,    3.199470e-03
 205,     6.5993,     14.700,    2.864046e-03
 206,     6.5925,     14.700,    3.206300e-03
 207,     6.5847,      9.834,    1.663036e-03
 208,     6.5769,      3.668,    3.310322e-04
 209,     6.5694,     14.700,    2.370201e-03
 210,     6.5596,     14.700,    1.821866e-03
 211,     6.5464,     10.522,    1.277606e-03
 212,     6.5375,     14.700,    1.009692e-03
 213,     6.5331,      3.471,    3.493719e-04
 214,     6.5241,      9.126,    1.108452e-03
 215,     6.5185,     11.377,    2.189668e-03
 216,     6.5019,     14.700,    2.005679e-03
 217,     6.4793,     14.700,    2.384563e-03
 218,     6.4654,     14.700,    2.852046e-03
 219,     6.4525,     14.700,    1.760791e-03
 220,     6.4250,     14.700,    1.587366e-03
 221,     6.4083,     12.812,    1.464148e-03
 222,     6.4029,     14.700,    2.062947e-03
 223,     6.3916,     14.700,    1.386271e-03
 224,     6.3851,     14.700,    2.196742e-03
 225,     6.3681,     10.718,    1.236672e-03
 226,     6.3637,     14.700,    5.156966e-03
 227,     6.3525,     14.700,    1.085247e-03
 228,     6.3298,     14.700,    1.205513e-03
 229,     6.3223,     14.700,    1.483081e-03
 230,     6.3128,     14.700,    2.530399e-03
 231,     6.3063,     14.038,    1.903013e-03
 232,     6.2953,      4.491,    2.604647e-04
 233,     6.2882,     11.124,    1.753618e-03
 234,     6.2820,      7.107,    9.174232e-04
 235,     6.2783,     11.291,    5.498263e-04
 236,     6.2641,     12.894,    1.289975e-03
 237,     6.2449,     14.700,    2.227545e-03
 238,     6.2306,     14.700,    2.503615e-03
 239,     6.2127,     14.700,    3.076653e-03
 240,     6.1994,     14.700,    3.139562e-03
 241,     6.1833,      9.203,    1.898597e-03
 242,     6.1512,     14.700,    2.256753e-03
 243,     6.1345,     14.700,    2.281158e-03
 244,     6.1253,     14.700,    3.013431e-03
 245,     6.1030,     14.700,    1.714941e-03
 246,     6.0924,     14.700,    1.465954e-03
 247,     6.0849,     14.700,    1.900291e-03
 248,     6.0728,     14.700,    2.382988e-03
 249,     6.0574,     14.700,    7.819897e-04
 250,     6.0464,     14.427,    1.134677e-03
 251,     6.0334,     14.700,    2.318634e-03
 252,     6.0238,     14.700,    1.382964e-03
 253,     6.0098,     14.700,    1.843129e-03
 254,     6.0017,     14.700,    3.246624e-03
 255,     5.9868,     14.700,    2.241513e-03
 256,     5.9738,     14.700,    2.434657e-03
 257,     5.9606,     14.700,    2.840943e-03
 258,     5.9386,     14.541,    1.794219e-03
 259,     5.9309,     12.557,    1.707995e-03
 260,     5.9205,      8.084,    1.086222e-03
 261,     5.9165,      4.436,    5.036232e-04
 262,     5.9121,      3.044,    3.312079e-04
 263,     5.9100,      2.982,    4.049515e-04
 264,     5.8995,     14.700,    2.118442e-03
 265,     5.8821,     14.700,    3.637290e-03
 266,     5.8678,     14.700,    1.585256e-03
 267,     5.8572,     14.700,    2.455435e-03
 268,     5.8401,     14.700,    2.478431e-03
 269,     5.8323,     14.700,    1.557731e-03
 270,     5.8015,     14.700,    1.547608e-03
 271,     5.7880,     14.700,    2.529139e-03
 272,     5.7794,     14.700,    2.212704e-03
 273,     5.7701,     14.700,    2.480997e-03
 274,     5.7645,      3.530,    2.799811e-04
 275,     5.7516,     14.700,    2.026699e-03
 276,     5.7360,     14.700,    1.587637e-03
 277,     5.7226,     14.700,    2.726021e-03
 278,     5.7109,     14.700,    2.260844e-03
 279,     5.6996,     14.700,    1.892930e-03
 280,     5.6907,     14.250,    1.488898e-03
 281,     5.6757,     14.642,    1.724281e-03
 282,     5.6681,     14.700,    4.996815e-03
 283,     5.6624,     14.700,    4.380724e-03
 284,     5.6560,     14.700,    1.889152e-03
 285,     5.6373,     14.700,    2.108395e-03
 286,     5.6225,     14.700,    2.289464e-03
 287,     5.6121,     14.700,    2.380403e-03
 288,     5.5780,     14.700,    2.374242e-03
 289,     5.5489,     14.700,    2.692383e-03
 290,     5.5362,     14.700,    3.410042e-03
 291,     5.5183,     14.700,    1.730519e-03
 292,     5.5088,      7.808,    8.751402e-04
 293,     5.4931,     14.700,    4.330897e-03
 294,     5.4878,     14.700,    3.553257e-03
 295,     5.4808,     14.700,    1.676494e-03
 296,     5.4692,     14.700,    2.632162e-03
 297,     5.4468,     14.700,    1.985822e-03
 298,     5.4338,     14.700,    2.114063e-03
 299,     5.4270,     14.700,    1.502748e-03
 300,     5.4092,     14.700,    2.631474e-03
 301,     5.3996,     14.700,    1.577489e-03
 302,     5.3778,     14.700,    2.562572e-03
 303,     5.3582,     14.700,    2.529424e-03
 304,     5.3505,     14.700,    1.915703e-03
 305,     5.3393,     14.700,    2.575684e-03
 306,     5.3299,     12.640,    5.758109e-03
 307,     5.3249,     13.960,    7.824302e-03
 308,     5.3151,      7.505,    1.494070e-03
 309,     5.3052,     14.700,    2.324124e-03
 310,     5.2951,     14.700,    2.732655e-03
 311,     5.2889,      8.309,    1.342178e-03
 312,     5.2828,      2.315,    3.695367e-04
 313,     5.2756,      2.578,    3.028201e-04
 314,     5.2731,      0.000,    8.604141e-05
 315,     5.2672,     14.700,    1.831553e-03
 316,     5.2290,      6.971,    7.657551e-02
 317,     5.2274,      3.167,    1.121794e-01
 318,     5.2259,      2.676,    1.224241e-01
 319,     5.2244,      5.061,    1.033185e-01
 320,     5.2216,     12.215,    7.473380e-01
 321,     5.2128,     14.700,    1.580662e-02
 322,     5.1723,     13.843,    9.275970e-02
 323,     5.1507,     14.700,    2.917501e-03
 324,     5.1327,     14.700,    1.807228e-03
 325,     5.1229,     14.700,    1.943641e-03
 326,     5.1177,     12.236,    6.482301e-03
 327,     5.1136,      8.138,    2.360095e-03
 328,     5.1118,      9.190,    2.297583e-03
 329,     5.1055,     11.038,    1.397205e-03
 330,     5.0970,      6.422,    1.120608e-03
 331,     5.0813,     14.700,    3.128648e-03
 332,     5.0642,     14.700,    2.558694e-03
 333,     5.0547,     14.700,    2.213298e-03
 334,     5.0394,     14.700,    2.662368e-03
 335,     5.0248,     14.700,    1.838706e-03
 336,     5.0122,     14.700,    1.998350e-03
 337,     4.9949,     14.700,    3.058413e-03
 338,     4.9821,     14.700,    3.316133e-03
 339,     4.9728,     14.700,    2.832966e-03
 340,     4.9571,     14.700,    2.989389e-03
 341,     4.9461,     14.700,    3.806321e-03
 342,     4.9367,     13.699,    2.377548e-03
 343,     4.9271,     14.700,    1.531534e-03
 344,     4.9111,     14.700,    1.690441e-03
 345,     4.9072,      6.996,    1.041560e-03
 346,     4.9007,      6.379,    8.947718e-04
 347,     4.8906,     14.115,    2.684326e-02
 348,     4.8797,     14.700,    1.609762e-03
 349,     4.8590,     14.700,    1.929870e-03
 350,     4.8487,     14.700,    1.337242e-03
 351,     4.8362,     14.700,    2.030629e-03
 352,     4.8327,     14.700,    1.741789e-03
 353,     4.8290,      1.518,    8.439909e-05
 354,     4.8224,      6.805,    6.357715e-04
 355,     4.8153,      4.177,    5.503617e-04
 356,     4.8127,     14.700,    1.595024e-03
 357,     4.8050,     14.700,    1.903965e-03
 358,     4.7970,     14.700,    2.104119e-03
 359,     4.7863,      0.355,    2.993087e-04
 360,     4.7848,      0.000,    2.866847e-04
 361,     4.7757,      9.942,    6.937202e-03
 362,     4.7651,     14.700,    4.312619e-03
 363,     4.7583,     14.700,    3.829686e-03
 364,     4.7499,     14.700,    4.430837e-03
 365,     4.7422,     14.700,    3.672948e-03
 366,     4.7327,     14.700,    3.848691e-03
 367,     4.7225,     14.700,    1.926003e-03
 368,     4.7152,     12.285,    2.029770e-03
 369,     4.7077,     14.700,    1.671873e-03
 370,     4.6957,     14.700,    1.480501e-03
 371,     4.6430,      8.966,    2.681805e-01
 372,     4.6418,      4.476,    2.493473e-01
 373,     4.6405,      4.138,    1.833447e-01
 374,     4.6389,      7.766,    1.440892e-01
 375,     4.6315,     10.819,    1.053790e+00
 376,     4.6237,     12.968,    1.359626e-02
 377,     4.6139,     14.700,    4.463961e-03
 378,     4.5590,     14.700,    1.463998e-03
 379,     4.5380,     10.871,    8.367265e-03
 380,     4.5281,     11.935,    1.049719e-02
 381,     4.5123,     12.154,    1.446252e-03
 382,     4.5067,      5.851,    8.074453e-04
 383,     4.4990,      6.091,    7.019136e-04
 384,     4.4849,     14.700,    2.304977e-03
 385,     4.4719,     14.700,    1.576693e-03
 386,     4.4610,     14.700,    9.719888e-04
 387,     4.4452,     14.700,    1.990516e-03
 388,     4.4306,     14.700,    1.679980e-03
 389,     4.4229,     14.700,    1.069417e-03
 390,     4.4138,     14.700,    1.600049e-03
 391,     4.4000,     14.700,    2.511499e-03
 392,     4.3820,     14.700,    2.092278e-03
 393,     4.3685,     14.700,    1.939484e-03
 394,     4.3591,     14.700,    2.366882e-03
 395,     4.3448,     14.700,    3.778713e-03
 396,     4.3354,     14.700,    1.563733e-03
 397,     4.3286,     14.700,    3.992160e-03
 398,     4.3185,     11.524,    1.178343e-03
 399,     4.3131,      9.461,    1.000867e-03
 400,     4.3094,      9.596,    1.499225e-03
 401,     4.3058,     10.657,    1.988297e-03
 402,     4.2770,     12.063,    5.807368e-03
 403,     4.2717,     12.531,    5.430389e-03
 404,     4.2542,     13.009,    2.681797e-02
 405,     4.2482,      9.691,    1.944188e-02
 406,     4.2461,     10.376,    5.367415e-02
 407,     4.2401,     10.619,    5.907505e-02
 408,     4.2379,      9.663,    4.814440e-02
 409,     4.2313,     13.640,    8.867797e-02
 410,     4.2236,     14.419,    3.378443e-02
 411,     4.2122,     14.700,    1.987046e-03
 412,     4.1621,     14.700,    1.690490e-03
 413,     4.1514,     14.700,    6.786483e-03
 414,     4.1486,     14.244,    6.148851e-03
 415,     4.1431,     11.033,    3.704613e-04
 416,     4.1372,     14.700,    3.346002e-03
 417,     4.1299,     14.700,    5.322809e-03
 418,     4.1217,     14.700,    4.074395e-03
 419,     4.1128,     14.700,    8.484239e-03
 420,     4.1059,     14.700,    8.914894e-03
 421,     4.0912,     14.700,    9.644853e-03
 422,     4.0788,     14.700,    7.009450e-03
 423,     4.0694,      5.636,    3.691416e-04
 424,     4.0565,     14.700,    9.294750e-04
 425,     4.0515,      6.582,    5.267339e-04
 426,     4.0402,     14.700,    4.346302e-03
 427,     4.0309,     14.700,    5.441395e-03
 428,     4.0242,     14.700,    8.772838e-03
 429,     4.0155,     14.700,    8.716964e-03
 430,     4.0107,     14.700,    7.084719e-03
 431,     4.0046,     14.700,    1.232966e-02
 432,     3.9990,     14.700,    7.760139e-03
 433,     3.9817,     13.788,    8.003537e-03
