index,   freq_ppm,   decay_hz, amplitude
   1,     9.0775,     14.700,    3.044004e-03
   2,     9.0504,     14.700,    2.134727e-03
   3,     9.0373,     14.700,    2.360997e-03
   4,     9.0265,     14.700,    2.725752e-03
   5,     9.0079,     14.700,    3.224541e-03
   6,     8.9944,     14.700,    3.573494e-03
   7,     8.9745,     14.700,    2.348154e-03
   8,     8.9666,     14.700,    2.560207e-03
   9,     8.9537,     14.700,    1.932908e-03
  10,     8.9400,     14.700,    1.559762e-03
  11,     8.9106,     14.700,    3.023017e-03
  12,     8.8966,     14.700,    2.566958e-03
  13,     8.8792,     14.700,    3.212191e-03
  14,     8.8719,     14.700,    2.515955e-03
  15,     8.8624,      9.528,    2.079159e-03
  16,     8.8561,      7.943,    1.039651e-03
  17,     8.8477,     14.700,    3.278893e-03
  18,     8.8401,      4.317,    5.609331e-04
  19,     8.8326,      1.903,    3.862330e-04
  20,     8.8304,      4.949,    8.867852e-04
  21,     8.8278,      5.556,    2.795604e-04
  22,     8.8231,     10.716,    2.056613e-03
  23,     8.8062,     14.700,    3.586550e-03
  24,     8.7949,     14.700,    3.702521e-03
  25,     8.7826,     14.700,    3.349470e-03
  26,     8.7698,     14.700,    3.915613e-03
  27,     8.7516,     14.700,    3.945888e-03
  28,     8.7376,     14.700,    2.268586e-03
  29,     8.7232,     14.700,    2.435983e-03
  30,     8.6943,     14.700,    2.976269e-03
  31,     8.6847,     11.054,    1.210305e-03
  32,     8.6773,     10.931,    1.119397e-03
  33,     8.6631,     14.700,    3.633541e-03
  34,     8.6495,     14.700,    1.659741e-03
  35,     8.6418,     14.700,    1.124523e-03
  36,     8.6330,     14.700,    2.678386e-03
  37,     8.6172,     14.700,    2.879447e-03
  38,     8.6052,     14.700,    2.545477e-03
  39,     8.5972,      3.279,    3.345545e-04
  40,     8.5910,     14.700,    1.918974e-03
  41,     8.5772,     14.700,    2.248008e-03
  42,     8.5642,     12.945,    1.060710e-02
  43,     8.5488,     14.700,    4.791867e-03
  44,     8.5418,     14.700,    3.955225e-03
  45,     8.5319,     14.700,    5.264382e-03
  46,     8.5199,     14.700,    4.189617e-03
  47,     8.5092,     14.700,    4.565817e-03
  48,     8.4996,      8.648,    9.935591e-04
  49,     8.4470,      6.504,    1.929549e-01
  50,     8.4456,      5.918,    3.680376e-01
  51,     8.4440,      9.737,    2.749492e-01
  52,     8.4384,     14.700,    6.333366e-02
  53,     8.4301,     14.700,    3.154701e-02
  54,     8.4185,     14.700,    2.323620e-02
  55,     8.4014,     14.700,    2.058553e-02
  56,     8.3788,     14.700,    4.461566e-03
  57,     8.3723,     14.700,    3.021454e-03
  58,     8.3645,     11.595,    1.659746e-03
  59,     8.3561,     14.700,    2.973829e-03
  60,     8.3451,     14.700,    3.636696e-03
  61,     8.3332,     14.700,    1.817086e-03
  62,     8.3206,     14.700,    1.171509e-02
  63,     8.3052,     14.700,    2.949446e-03
  64,     8.2928,     14.700,    2.815297e-03
  65,     8.2752,     14.654,    2.740050e-03
  66,     8.2713,      1.692,    1.458186e-04
  67,     8.2629,     10.363,    1.573747e-03
  68,     8.2540,      3.909,    5.460829e-04
  69,     8.2497,     14.700,    1.783619e-03
  70,     8.2343,     14.700,    2.718676e-03
  71,     8.2244,     14.700,    3.897084e-03
  72,     8.2103,     14.700,    3.302188e-03
  73,     8.2019,     14.700,    1.697231e-03
  74,     8.1923,     14.700,    2.875964e-03
  75,     8.1793,     14.700,    4.421833e-03
  76,     8.1575,     14.700,    2.545587e-03
  77,     8.1480,     14.700,    2.333364e-03
  78,     8.1319,     14.700,    3.243631e-03
  79,     8.1228,     14.700,    2.905998e-03
  80,     8.0987,     14.700,    2.079319e-03
  81,     8.0865,     14.700,    3.060175e-03
  82,     8.0755,     14.700,    3.110418e-03
  83,     8.0630,     13.341,    1.500199e-03
  84,     8.0538,     14.700,    1.467090e-03
  85,     8.0481,     14.700,    1.855569e-03
  86,     8.0415,      6.498,    7.398265e-04
  87,     8.0287,     14.700,    2.314464e-03
  88,     8.0189,     14.700,    2.833370e-03
  89,     8.0101,     14.700,    9.204313e-04
  90,     8.0041,      5.815,    6.297739e-04
  91,     7.9975,      8.903,    1.323227e-03
  92,     7.9949,      1.011,    1.834151e-04
  93,     7.9808,     14.700,    2.083376e-03
  94,     7.9670,     14.700,    2.306473e-03
  95,     7.9602,     14.700,    2.361610e-03
  96,     7.9508,     14.700,    1.839653e-03
  97,     7.9391,      8.364,    1.176939e-03
  98,     7.9294,      9.039,    1.245043e-03
  99,     7.9256,      4.155,    3.092895e-04
 100,     7.9218,      6.343,    9.951091e-04
 101,     7.9189,      5.058,    8.811299e-04
 102,     7.9098,     11.790,    2.447565e-03
 103,     7.9022,     14.700,    2.291665e-03
 104,     7.8775,     11.716,    9.940781e-04
 105,     7.8660,     11.903,    8.688753e-03
 106,     7.8566,     14.700,    1.351306e-02
 107,     7.8476,     14.700,    2.507158e-03
 108,     7.8410,     14.700,    3.386006e-03
 109,     7.8282,     14.700,    3.559390e-03
 110,     7.8215,     12.322,    1.604446e-03
 111,     7.8146,     14.700,    2.574454e-03
 112,     7.8105,      4.546,    4.941997e-04
 113,     7.8013,     14.700,    1.750353e-03
 114,     7.7905,      6.177,    8.759681e-04
 115,     7.7854,     11.959,    2.051485e-03
 116,     7.7831,      0.032,    4.747560e-05
 117,     7.7766,     12.334,    1.923111e-03
 118,     7.7689,     13.313,    1.749095e-03
 119,     7.7645,     11.580,    2.127537e-03
 120,     7.7569,      6.940,    1.435543e-03
 121,     7.7460,      8.959,    1.405734e-03
 122,     7.7422,      8.823,    1.196036e-03
 123,     7.7374,     10.687,    1.628164e-03
 124,     7.7294,     14.700,    1.779606e-03
 125,     7.7130,     14.700,    2.952377e-03
 126,     7.7051,     14.700,    1.688423e-03
 127,     7.6952,     14.700,    2.623220e-03
 128,     7.6878,     14.700,    2.490505e-03
 129,     7.6807,     10.412,    1.014120e-03
 130,     7.6652,     14.700,    3.254554e-03
 131,     7.6477,     14.700,    3.550617e-03
 132,     7.6341,     14.700,    3.120066e-03
 133,     7.6000,     14.700,    4.205291e-03
 134,     7.5867,     14.700,    3.775942e-03
 135,     7.5547,     14.700,    5.259590e-03
 136,     7.5487,      2.513,    2.170105e-04
 137,     7.5436,     14.700,    8.696776e-03
 138,     7.5342,     13.898,    4.525300e-03
 139,     7.5248,     14.700,    2.203723e-03
 140,     7.5086,     13.849,    2.583634e-03
 141,     7.4992,     14.700,    1.699146e-03
 142,     7.4908,     13.308,    1.798945e-03
 143,     7.4822,     11.577,    7.070117e-03
 144,     7.4745,     10.551,    4.266173e-03
 145,     7.4723,     12.568,    1.107420e-02
 146,     7.4637,     14.700,    8.624209e-03
 147,     7.4544,     14.700,    2.949626e-03
 148,     7.4417,     14.700,    1.917310e-03
 149,     7.4249,     14.700,    2.196706e-03
 150,     7.3888,     14.700,    2.690132e-03
 151,     7.3749,     14.700,    2.928265e-03
 152,     7.3598,     14.700,    2.610258e-03
 153,     7.3486,     14.700,    2.660491e-03
 154,     7.3396,     14.700,    2.595736e-03
 155,     7.3218,     14.700,    2.424908e-03
 156,     7.3055,     14.700,    1.838434e-03
 157,     7.2743,     14.700,    3.031346e-03
 158,     7.2682,     14.700,    2.974367e-03
 159,     7.2637,      6.634,    4.571659e-04
 160,     7.2561,     13.450,    2.400964e-03
 161,     7.2507,      5.076,    3.871164e-04
 162,     7.2412,     14.700,    2.182477e-03
 163,     7.2346,      3.249,    3.660560e-04
 164,     7.2234,     14.700,    2.176677e-03
 165,     7.2131,     14.700,    2.085072e-03
 166,     7.2048,      9.273,    1.400291e-03
 167,     7.1950,     14.700,    1.119257e-03
 168,     7.1813,     14.700,    3.261150e-03
 169,     7.1711,      7.443,    1.030913e-03
 170,     7.1599,     14.700,    8.261760e-04
 171,     7.1504,     14.700,    2.575768e-03
 172,     7.1403,     14.700,    2.077805e-03
 173,     7.1292,     14.700,    2.247144e-03
 174,     7.1217,     14.700,    2.220329e-03
 175,     7.1142,     14.700,    2.093565e-03
 176,     7.1063,      8.385,    1.637534e-03
 177,     7.0956,     14.700,    1.626853e-03
 178,     7.0802,     14.700,    8.399371e-03
 179,     7.0707,     14.700,    3.282471e-03
 180,     7.0633,     14.700,    1.933163e-03
 181,     7.0552,      5.870,    4.188469e-04
 182,     7.0485,      4.942,    5.965818e-04
 183,     7.0402,      9.658,    1.185388e-03
 184,     7.0331,     14.700,    1.475211e-03
 185,     7.0209,     14.700,    3.460168e-03
 186,     7.0132,      7.272,    4.019327e-04
 187,     7.0073,     14.700,    2.573406e-03
 188,     6.9989,      8.688,    9.153420e-04
 189,     6.9913,      1.670,    2.234581e-04
 190,     6.9817,     12.431,    1.926507e-03
 191,     6.9737,      8.640,    1.159300e-03
 192,     6.9666,     14.700,    6.408829e-04
 193,     6.9559,     12.289,    1.006391e-03
 194,     6.9485,     14.700,    1.606486e-03
 195,     6.9343,      8.732,    9.725179e-04
 196,     6.9232,      7.923,    8.940027e-04
 197,     6.9129,     14.700,    1.212745e-03
 198,     6.8993,     10.943,    1.647541e-03
 199,     6.8909,     10.923,    8.816590e-04
 200,     6.8771,     14.700,    2.968658e-03
 201,     6.8661,     14.700,    1.204927e-03
 202,     6.8546,     14.700,    2.838357e-03
 203,     6.8412,      5.069,    2.254399e-04
 204,     6.8362,     14.700,    2.576180e-03
 205,     6.8280,      9.405,    1.077159e-03
 206,     6.8226,     11.521,    2.115648e-03
 207,     6.8087,     13.011,    2.619618e-03
 208,     6.8029,      7.462,    1.264907e-03
 209,     6.7875,     14.700,    1.099035e-03
 210,     6.7740,     14.700,    1.308125e-03
 211,     6.7670,     14.130,    2.479730e-03
 212,     6.7565,     14.700,    2.814271e-03
 213,     6.7454,      8.601,    1.065511e-03
 214,     6.7349,      9.832,    1.568171e-03
 215,     6.7313,      8.227,    9.622496e-04
 216,     6.7213,     14.700,    2.657057e-03
 217,     6.7115,     14.700,    3.006497e-03
 218,     6.6872,     14.700,    2.418677e-03
 219,     6.6703,     14.700,    2.934720e-03
 220,     6.6512,     14.700,    3.107665e-03
 221,     6.6205,     14.700,    3.747774e-03
 222,     6.5924,     14.700,    2.457964e-03
 223,     6.5758,     14.700,    3.554315e-03
 224,     6.5672,      3.712,    5.009113e-04
 225,     6.5650,      6.955,    7.540325e-04
 226,     6.5576,     11.537,    1.924348e-03
 227,     6.5535,      1.144,    1.615552e-04
 228,     6.5491,      8.197,    9.123983e-04
 229,     6.5381,     14.700,    1.767883e-03
 230,     6.5230,     14.700,    2.029771e-03
 231,     6.5108,     14.700,    1.331057e-03
 232,     6.5018,     14.700,    2.109612e-03
 233,     6.4827,     14.700,    1.871977e-03
 234,     6.4735,     14.700,    2.715746e-03
 235,     6.4563,     14.700,    3.495790e-03
 236,     6.4494,     14.700,    1.035925e-03
 237,     6.4421,     14.700,    1.822047e-03
 238,     6.4359,     11.958,    1.537928e-03
 239,     6.4261,     14.700,    2.057686e-03
 240,     6.4139,     14.700,    2.297854e-03
 241,     6.3971,     14.700,    7.956442e-04
 242,     6.3883,     14.700,    2.064609e-03
 243,     6.3747,     14.700,    2.261185e-03
 244,     6.3636,     14.700,    6.136422e-03
 245,     6.3525,     14.700,    2.640727e-03
 246,     6.3388,     14.700,    2.273277e-03
 247,     6.3286,     14.700,    2.163194e-03
 248,     6.3136,     14.700,    1.624183e-03
 249,     6.3006,     14.700,    2.998442e-03
 250,     6.2878,     14.700,    2.474325e-03
 251,     6.2721,     14.700,    1.934996e-03
 252,     6.2630,     14.700,    2.639668e-03
 253,     6.2365,     14.700,    1.408707e-03
 254,     6.2296,     14.700,    2.928964e-03
 255,     6.2186,     14.700,    1.593852e-03
 256,     6.2098,     14.700,    2.315660e-03
 257,     6.2000,      4.889,    8.027646e-04
 258,     6.1919,     12.494,    1.567862e-03
 259,     6.1777,     14.700,    2.706388e-03
 260,     6.1661,     14.700,    1.892691e-03
 261,     6.1589,      7.349,    8.270994e-04
 262,     6.1515,     14.700,    2.855763e-03
 263,     6.1467,     14.700,    2.467848e-03
 264,     6.1395,     13.084,    1.790373e-03
 265,     6.1261,     14.700,    1.746429e-03
 266,     6.1200,     14.700,    2.196345e-03
 267,     6.1064,     14.555,    4.023414e-03
 268,     6.0941,     14.610,    3.563490e-03
 269,     6.0865,     14.568,    2.885428e-03
 270,     6.0698,     14.091,    2.477253e-03
 271,     6.0602,     13.632,    2.268470e-03
 272,     6.0528,     14.246,    3.035476e-03
 273,     6.0392,     14.700,    2.312568e-03
 274,     6.0274,     14.700,    1.708020e-03
 275,     6.0157,     14.700,    2.132533e-03
 276,     6.0011,     14.700,    1.888294e-03
 277,     5.9803,     14.700,    2.237613e-03
 278,     5.9709,     12.100,    2.233849e-03
 279,     5.9646,     12.793,    1.955518e-03
 280,     5.9599,     10.819,    1.198151e-03
 281,     5.9528,     11.018,    8.778695e-04
 282,     5.9388,     14.700,    1.957224e-03
 283,     5.9319,     13.353,    2.511558e-03
 284,     5.9221,     14.700,    2.120741e-03
 285,     5.9132,     14.700,    2.511048e-03
 286,     5.9027,     14.700,    2.100116e-03
 287,     5.8927,     12.317,    2.809695e-03
 288,     5.8813,      6.098,    1.282647e-03
 289,     5.8757,      1.843,    1.611404e-04
 290,     5.8667,     13.397,    3.283201e-03
 291,     5.8596,      8.423,    8.651104e-04
 292,     5.8460,     13.744,    1.890735e-03
 293,     5.8398,     10.655,    1.769976e-03
 294,     5.8291,     14.700,    1.057522e-03
 295,     5.8205,     12.357,    2.653287e-03
 296,     5.8149,      4.851,    6.937074e-04
 297,     5.8073,     14.700,    1.980124e-03
 298,     5.7965,     14.700,    2.108753e-03
 299,     5.7651,     14.700,    2.874463e-03
 300,     5.7292,     14.700,    3.706766e-03
 301,     5.7156,     14.700,    2.832830e-03
 302,     5.6896,     14.700,    2.939660e-03
 303,     5.6749,     14.700,    3.620473e-03
 304,     5.6601,     14.700,    2.068312e-03
 305,     5.6418,     14.700,    2.348301e-03
 306,     5.6348,     14.700,    2.044077e-03
 307,     5.6151,     14.700,    4.273297e-03
 308,     5.6073,     14.700,    2.328621e-03
 309,     5.5954,     14.700,    2.418125e-03
 310,     5.5865,     14.700,    1.794338e-03
 311,     5.5754,     14.700,    2.138375e-03
 312,     5.5587,     14.700,    2.701644e-03
 313,     5.5441,     14.700,    2.023089e-03
 314,     5.5353,     14.700,    2.844054e-03
 315,     5.5284,     13.143,    1.762237e-03
 316,     5.5197,     14.700,    2.076163e-03
 317,     5.5129,     12.364,    1.434560e-03
 318,     5.5030,     13.663,    2.854196e-03
 319,     5.4904,     14.700,    1.583818e-03
 320,     5.4822,     14.700,    1.360030e-03
 321,     5.4644,     14.700,    2.285899e-03
 322,     5.4507,     14.700,    1.949063e-03
 323,     5.4399,     14.700,    3.039609e-03
 324,     5.4230,     14.700,    1.888936e-03
 325,     5.4146,     14.700,    1.079484e-03
 326,     5.4076,     14.700,    2.395222e-03
 327,     5.3997,     11.069,    2.168713e-03
 328,     5.3958,     14.700,    2.318535e-03
 329,     5.3873,     14.700,    1.775057e-03
 330,     5.3683,     14.700,    2.648221e-03
 331,     5.3606,     14.700,    1.388734e-03
 332,     5.3438,     14.700,    1.844789e-03
 333,     5.3346,     13.555,    1.832696e-03
 334,     5.3272,     10.208,    2.092123e-03
 335,     5.3161,     14.700,    9.864382e-04
 336,     5.3052,      9.906,    1.749477e-03
 337,     5.2955,     14.700,    2.067243e-03
 338,     5.2879,     14.700,    9.473563e-04
 339,     5.2767,     14.700,    1.698493e-03
 340,     5.2697,      8.313,    8.708338e-04
 341,     5.2589,     14.700,    1.378865e-03
 342,     5.2481,     14.700,    2.166588e-03
 343,     5.2379,     14.700,    1.003587e-03
 344,     5.2256,     14.700,    3.502302e-03
 345,     5.2182,     11.025,    1.710078e-03
 346,     5.2074,     14.700,    2.673757e-03
 347,     5.1993,     14.700,    7.690312e-04
 348,     5.1857,     14.700,    5.028699e-03
 349,     5.1735,     12.345,    1.439157e-03
 350,     5.1678,     14.185,    3.120697e-03
 351,     5.1550,     14.700,    2.033511e-03
 352,     5.1428,      7.007,    9.387223e-04
 353,     5.1340,      2.724,    3.495685e-04
 354,     5.1312,      5.435,    6.147611e-04
 355,     5.1228,      9.660,    1.315766e-03
 356,     5.1155,     14.700,    1.330066e-03
 357,     5.1077,     12.612,    1.902695e-03
 358,     5.0940,     14.700,    3.114775e-03
 359,     5.0850,     14.700,    2.516455e-03
 360,     5.0728,     14.700,    2.807064e-03
 361,     5.0595,     14.700,    3.188236e-03
 362,     5.0509,     14.700,    2.369864e-03
 363,     5.0355,     13.639,    1.573282e-03
 364,     5.0308,     12.066,    1.343782e-03
 365,     5.0233,     10.255,    1.079002e-03
 366,     5.0122,     14.684,    1.621473e-03
 367,     5.0014,     14.700,    2.604815e-03
 368,     4.9938,      5.442,    7.753648e-04
 369,     4.9867,     14.700,    1.007887e-03
 370,     4.9756,     12.673,    1.907408e-03
 371,     4.9727,      7.034,    1.155153e-03
 372,     4.9577,     14.700,    2.102723e-03
 373,     4.9499,     14.700,    2.314541e-03
 374,     4.9414,     14.700,    3.942211e-03
 375,     4.9270,     14.700,    1.882107e-03
 376,     4.9137,     14.700,    2.426852e-03
 377,     4.9038,     14.700,    1.375840e-03
 378,     4.8910,     14.700,    3.257681e-03
 379,     4.8774,     14.700,    4.148186e-03
 380,     4.8611,     14.700,    3.971309e-03
 381,     4.8423,     14.700,    4.221801e-03
 382,     4.8337,     14.700,    2.890671e-03
 383,     4.8177,     14.700,    3.210722e-03
 384,     4.8045,     14.700,    9.754205e-03
 385,     4.7975,     14.700,    1.180555e-02
 386,     4.7923,     14.700,    1.285662e-02
 387,     4.7769,      4.076,    1.809534e-02
 388,     4.7747,     11.564,    1.602030e-02
 389,     4.7672,     14.700,    1.941532e-02
 390,     4.7591,     14.700,    1.957191e-02
 391,     4.7518,     14.700,    1.708906e-02
 392,     4.7402,     14.700,    1.614672e-02
 393,     4.7287,     14.700,    1.731895e-02
 394,     4.7116,     14.700,    2.521821e-03
 395,     4.7063,      7.266,    5.979454e-04
 396,     4.6915,     14.665,    1.722039e-03
 397,     4.6791,      9.426,    6.919993e-04
 398,     4.6700,     14.700,    2.175265e-03
 399,     4.6651,     14.700,    3.785237e-03
 400,     4.6410,     14.700,    2.893239e-03
 401,     4.6205,     14.700,    2.426463e-03
 402,     4.5947,     14.700,    2.548508e-03
 403,     4.5634,     14.700,    3.326740e-03
 404,     4.5421,     14.700,    3.214577e-03
 405,     4.5291,     14.700,    2.715757e-03
 406,     4.5196,     14.700,    2.400340e-03
 407,     4.5105,     14.700,    3.225212e-03
 408,     4.4919,     14.627,    2.514645e-03
 409,     4.4861,     14.700,    1.385022e-03
 410,     4.4793,     14.700,    2.065614e-03
 411,     4.4670,     14.700,    2.036125e-03
 412,     4.4581,     14.700,    2.651998e-03
 413,     4.4304,     14.700,    2.935020e-03
 414,     4.4172,     14.700,    2.791237e-03
 415,     4.4014,     14.700,    3.034896e-03
 416,     4.3811,     14.700,    1.970444e-03
 417,     4.3762,     14.700,    1.291140e-03
 418,     4.3643,     14.700,    2.548480e-03
 419,     4.3578,     14.700,    3.287341e-03
 420,     4.3461,     14.082,    1.591073e-03
 421,     4.3375,     14.700,    2.648071e-03
 422,     4.3263,     14.700,    2.791747e-03
 423,     4.3183,     14.700,    8.935652e-04
 424,     4.3065,     14.700,    1.436955e-03
 425,     4.2919,      5.174,    7.631327e-04
 426,     4.2827,     14.700,    3.050462e-03
 427,     4.2692,     14.700,    2.944441e-03
 428,     4.2351,     14.700,    4.245726e-03
 429,     4.2241,     14.700,    2.563517e-03
 430,     4.2059,     14.700,    3.766506e-03
 431,     4.1900,     14.700,    2.652543e-03
 432,     4.1795,     14.700,    3.841473e-03
 433,     4.1617,     14.700,    2.257142e-03
