index,   freq_ppm,   decay_hz, amplitude
   1,     9.0833,     14.700,    3.605330e-03
   2,     9.0632,     14.700,    3.850022e-03
   3,     9.0470,     14.700,    3.826681e-03
   4,     9.0257,     14.700,    3.653323e-03
   5,     9.0120,     14.700,    3.110558e-03
   6,     8.9842,     14.700,    3.561809e-03
   7,     8.9705,     14.700,    4.155391e-03
   8,     8.9538,     14.700,    3.353430e-03
   9,     8.9438,     14.700,    3.342260e-03
  10,     8.9301,     14.700,    3.524581e-03
  11,     8.9179,     14.700,    3.057241e-03
  12,     8.8983,     14.700,    3.539653e-03
  13,     8.8812,     14.700,    2.849245e-03
  14,     8.8664,     14.700,    2.900814e-03
  15,     8.8516,     14.700,    3.038299e-03
  16,     8.8373,     14.700,    3.074209e-03
  17,     8.8234,     14.700,    2.057622e-03
  18,     8.8057,     14.700,    2.433695e-03
  19,     8.7958,      9.200,    2.487505e-03
  20,     8.7788,     14.700,    4.216021e-03
  21,     8.7516,     14.700,    4.529438e-03
  22,     8.7328,     14.700,    4.019070e-03
  23,     8.7182,     14.700,    3.808661e-03
  24,     8.7072,     14.700,    3.843298e-03
  25,     8.6825,     14.700,    5.211179e-03
  26,     8.6694,      6.784,    1.260831e-03
  27,     8.6583,     14.700,    1.711914e-03
  28,     8.6516,     11.646,    1.528677e-03
  29,     8.6480,      0.154,    2.827530e-04
  30,     8.6411,      2.712,    7.228669e-04
  31,     8.6315,     14.700,    4.168964e-03
  32,     8.6206,     14.700,    3.511959e-03
  33,     8.6081,     14.700,    3.922694e-03
  34,     8.5962,     14.700,    3.318352e-03
  35,     8.5855,     14.700,    3.916876e-03
  36,     8.5646,     14.700,    7.830286e-03
  37,     8.5560,     14.700,    4.827510e-03
  38,     8.5472,     14.700,    2.924773e-03
  39,     8.5346,     14.700,    3.383585e-03
  40,     8.5244,     14.700,    4.044816e-03
  41,     8.5109,     14.700,    4.932378e-03
  42,     8.5042,     14.700,    2.013286e-03
  43,     8.4466,      7.186,    1.045084e-01
  44,     8.4451,      7.384,    1.634388e-01
  45,     8.4428,     10.082,    3.823618e-02
  46,     8.4389,      9.056,    9.926092e-03
  47,     8.4345,     14.700,    1.672649e-02
  48,     8.4280,     14.700,    8.206746e-03
  49,     8.4218,     14.700,    6.640297e-03
  50,     8.4108,     14.700,    4.841055e-03
  51,     8.4027,     14.700,    1.748565e-03
  52,     8.3924,     14.700,    3.354564e-03
  53,     8.3789,     14.700,    2.281216e-03
  54,     8.3723,     14.700,    3.134095e-03
  55,     8.3618,     14.700,    3.693411e-03
  56,     8.3486,     14.700,    3.431054e-03
  57,     8.3401,     14.700,    3.985245e-03
  58,     8.3316,      9.091,    1.195509e-03
  59,     8.3255,      1.181,    4.518247e-04
  60,     8.3204,     14.700,    5.803813e-03
  61,     8.3168,      2.763,    3.886870e-04
  62,     8.3129,     14.700,    2.863667e-03
  63,     8.2944,     14.700,    2.784637e-03
  64,     8.2768,     14.700,    2.858411e-03
  65,     8.2593,     14.700,    3.202376e-03
  66,     8.2421,     14.700,    3.408386e-03
  67,     8.2275,     14.700,    1.869707e-03
  68,     8.2172,     14.700,    2.797988e-03
  69,     8.2045,     14.700,    2.411734e-03
  70,     8.1917,     14.700,    2.307355e-03
  71,     8.1756,     14.555,    2.574210e-03
  72,     8.1685,     14.577,    1.854078e-03
  73,     8.1602,     14.700,    3.077991e-03
  74,     8.1509,     14.700,    1.844130e-03
  75,     8.1359,     14.700,    3.041339e-03
  76,     8.1296,     14.700,    1.776344e-03
  77,     8.1197,     14.700,    2.530681e-03
  78,     8.1125,     14.673,    2.900099e-03
  79,     8.1042,     10.042,    1.929108e-03
  80,     8.0980,     12.992,    3.206495e-03
  81,     8.0881,      6.483,    1.108143e-03
  82,     8.0811,     10.403,    1.588627e-03
  83,     8.0765,     14.700,    4.655391e-03
  84,     8.0677,     14.700,    2.271887e-03
  85,     8.0567,     14.700,    2.390969e-03
  86,     8.0491,      9.643,    1.396403e-03
  87,     8.0375,     14.700,    2.660727e-03
  88,     8.0189,     14.555,    3.016476e-03
  89,     8.0070,     14.642,    3.041743e-03
  90,     7.9992,     13.661,    2.917387e-03
  91,     7.9812,     14.700,    1.477965e-03
  92,     7.9706,     14.700,    2.816803e-03
  93,     7.9618,     14.700,    3.381683e-03
  94,     7.9510,     14.700,    1.797785e-03
  95,     7.9396,     14.700,    2.019693e-03
  96,     7.9290,     14.700,    2.944132e-03
  97,     7.9174,     14.700,    2.708822e-03
  98,     7.9069,     13.788,    1.657002e-03
  99,     7.9002,     14.700,    2.441261e-03
 100,     7.8881,     14.700,    3.932623e-03
 101,     7.8719,     14.700,    2.576718e-03
 102,     7.8599,     10.047,    1.937612e-03
 103,     7.8520,      5.663,    9.664711e-04
 104,     7.8457,     14.700,    3.010719e-03
 105,     7.8374,     14.700,    2.511524e-03
 106,     7.8230,     14.700,    2.229169e-03
 107,     7.8140,      9.706,    8.399650e-04
 108,     7.8047,     14.700,    2.056591e-03
 109,     7.7926,     14.700,    3.168006e-03
 110,     7.7760,     14.700,    2.936828e-03
 111,     7.7590,     14.700,    2.145176e-03
 112,     7.7507,     14.700,    1.889428e-03
 113,     7.7383,     14.700,    3.206906e-03
 114,     7.7251,     14.700,    1.880728e-03
 115,     7.7129,     14.700,    2.972170e-03
 116,     7.6957,     14.700,    2.774286e-03
 117,     7.6739,     14.700,    3.083048e-03
 118,     7.6653,     14.700,    2.243905e-03
 119,     7.6534,     14.700,    2.522705e-03
 120,     7.6388,     14.700,    2.936235e-03
 121,     7.6307,      2.396,    4.214545e-04
 122,     7.6217,     14.700,    2.815588e-03
 123,     7.6162,     14.700,    3.479220e-03
 124,     7.6051,     14.700,    3.364841e-03
 125,     7.5887,     14.700,    1.849773e-03
 126,     7.5786,     14.700,    3.642918e-03
 127,     7.5630,     14.700,    3.868442e-03
 128,     7.5449,     14.700,    4.556421e-03
 129,     7.5373,     14.700,    3.526598e-03
 130,     7.5170,      6.501,    1.411406e-03
 131,     7.5079,     14.700,    3.778655e-03
 132,     7.4902,     14.700,    3.604238e-03
 133,     7.4742,     14.700,    3.674341e-03
 134,     7.4672,     14.700,    1.877960e-03
 135,     7.4559,     11.736,    2.354172e-03
 136,     7.4453,      8.971,    1.050948e-03
 137,     7.4368,     14.700,    1.709801e-03
 138,     7.4305,     14.700,    3.300686e-03
 139,     7.4199,     14.700,    2.988999e-03
 140,     7.4065,     14.700,    4.589010e-03
 141,     7.3931,     14.700,    4.333076e-03
 142,     7.3812,     14.700,    2.947422e-03
 143,     7.3718,     14.700,    2.918289e-03
 144,     7.3616,     14.700,    2.993259e-03
 145,     7.3506,     14.700,    3.087660e-03
 146,     7.3399,     14.700,    1.605237e-03
 147,     7.3286,     14.700,    3.717731e-03
 148,     7.3202,     14.700,    3.718352e-03
 149,     7.3100,     14.700,    4.710066e-03
 150,     7.2978,     14.700,    3.449566e-03
 151,     7.2863,     14.700,    2.638198e-03
 152,     7.2771,      7.123,    1.128700e-03
 153,     7.2716,     14.700,    2.718537e-03
 154,     7.2665,     14.700,    3.446032e-03
 155,     7.2619,      2.032,    2.444801e-04
 156,     7.2535,     11.949,    2.564400e-03
 157,     7.2494,      0.000,    9.304767e-05
 158,     7.2452,     11.957,    1.739918e-03
 159,     7.2350,      8.421,    1.294406e-03
 160,     7.2283,      4.187,    7.338164e-04
 161,     7.2227,      6.221,    1.182569e-03
 162,     7.2128,      2.435,    4.312114e-04
 163,     7.2031,     13.743,    3.173994e-03
 164,     7.1985,      6.113,    9.286533e-04
 165,     7.1947,      1.556,    3.484306e-04
 166,     7.1903,     14.700,    2.812867e-03
 167,     7.1839,     14.700,    1.570048e-03
 168,     7.1774,      3.607,    5.655613e-04
 169,     7.1694,     14.700,    3.437840e-03
 170,     7.1531,     14.700,    3.134547e-03
 171,     7.1417,     14.700,    4.647742e-03
 172,     7.1199,     14.700,    3.901013e-03
 173,     7.1011,     14.700,    3.350553e-03
 174,     7.0838,     14.700,    5.671355e-03
 175,     7.0727,     14.700,    3.283657e-03
 176,     7.0527,     11.741,    1.567028e-03
 177,     7.0469,      9.153,    1.900152e-03
 178,     7.0396,     14.700,    2.333519e-03
 179,     7.0298,     14.700,    3.230178e-03
 180,     7.0131,     14.700,    3.770387e-03
 181,     6.9986,     14.700,    2.789819e-03
 182,     6.9890,      0.000,    2.504280e-04
 183,     6.9864,     14.647,    2.675244e-03
 184,     6.9817,      1.553,    3.146401e-04
 185,     6.9772,      7.158,    1.501045e-03
 186,     6.9698,     14.700,    3.859590e-03
 187,     6.9544,     14.700,    3.038080e-03
 188,     6.9431,     14.700,    3.783481e-03
 189,     6.9326,     14.700,    1.787155e-03
 190,     6.9210,     14.700,    3.391472e-03
 191,     6.9110,     14.700,    2.361171e-03
 192,     6.8954,     14.700,    2.614776e-03
 193,     6.8783,     14.700,    3.033766e-03
 194,     6.8554,     14.700,    2.299682e-03
 195,     6.8432,     14.700,    3.242437e-03
 196,     6.8304,     14.700,    2.696510e-03
 197,     6.8193,     14.700,    3.530290e-03
 198,     6.8048,     14.700,    2.232959e-03
 199,     6.7906,     14.700,    3.319104e-03
 200,     6.7772,     14.700,    2.668575e-03
 201,     6.7702,     14.700,    2.404026e-03
 202,     6.7499,     14.700,    4.011980e-03
 203,     6.7347,     14.700,    4.192939e-03
 204,     6.7154,     14.700,    1.731189e-03
 205,     6.6994,     14.700,    3.155543e-03
 206,     6.6841,     14.700,    2.843184e-03
 207,     6.6701,     14.700,    3.141332e-03
 208,     6.6591,     14.700,    2.713566e-03
 209,     6.6464,     14.700,    2.980043e-03
 210,     6.6341,     14.700,    3.145373e-03
 211,     6.6172,     14.700,    3.286866e-03
 212,     6.5854,     14.700,    2.526005e-03
 213,     6.5795,      5.472,    1.028752e-03
 214,     6.5720,      4.084,    6.874836e-04
 215,     6.5601,     14.700,    2.172429e-03
 216,     6.5515,     14.700,    1.485210e-03
 217,     6.5413,     14.700,    2.085806e-03
 218,     6.5302,     14.700,    3.048269e-03
 219,     6.5238,      8.788,    1.064175e-03
 220,     6.5164,      4.886,    3.729549e-04
 221,     6.5090,     12.267,    2.329314e-03
 222,     6.4942,     14.700,    2.574408e-03
 223,     6.4841,     14.086,    2.377629e-03
 224,     6.4768,     11.957,    2.622799e-03
 225,     6.4701,      9.243,    1.969681e-03
 226,     6.4592,     14.700,    3.664271e-03
 227,     6.4486,      9.529,    1.103606e-03
 228,     6.4384,     14.700,    4.280749e-03
 229,     6.4371,     14.700,    4.688417e-03
 230,     6.4068,     14.700,    4.393877e-03
 231,     6.3948,     14.700,    3.879499e-03
 232,     6.3760,     14.700,    3.017805e-03
 233,     6.3668,     14.700,    5.971203e-03
 234,     6.3477,     14.700,    4.293008e-03
 235,     6.3265,      4.737,    1.347542e-03
 236,     6.3203,     14.380,    2.888546e-03
 237,     6.3136,     14.700,    3.142510e-03
 238,     6.3006,     14.700,    3.104890e-03
 239,     6.2865,      9.398,    1.773432e-03
 240,     6.2784,     14.348,    2.656056e-03
 241,     6.2685,     14.700,    3.092019e-03
 242,     6.2574,     14.700,    3.354928e-03
 243,     6.2515,      4.928,    1.072693e-03
 244,     6.2436,      6.824,    1.262742e-03
 245,     6.2312,     14.700,    2.268294e-03
 246,     6.2233,      4.261,    7.154465e-04
 247,     6.2158,     14.700,    2.352343e-03
 248,     6.2065,     14.700,    4.431391e-03
 249,     6.1936,     14.700,    2.320187e-03
 250,     6.1879,      4.164,    7.697083e-04
 251,     6.1768,      8.476,    2.050629e-03
 252,     6.1685,     14.700,    2.611637e-03
 253,     6.1492,     14.700,    3.497809e-03
 254,     6.1421,      3.864,    1.132647e-03
 255,     6.1351,     14.700,    2.706711e-03
 256,     6.1200,     14.700,    1.306936e-03
 257,     6.1119,      8.610,    1.312388e-03
 258,     6.1054,     13.017,    2.019867e-03
 259,     6.0977,     11.229,    2.008753e-03
 260,     6.0890,      8.981,    1.858162e-03
 261,     6.0789,     14.700,    2.334811e-03
 262,     6.0688,     14.700,    1.354014e-03
 263,     6.0631,      3.700,    6.315701e-04
 264,     6.0504,     14.700,    1.663693e-03
 265,     6.0418,      4.264,    9.985263e-04
 266,     6.0304,     14.700,    3.480405e-03
 267,     6.0171,     14.700,    4.483646e-03
 268,     6.0014,     14.700,    3.978973e-03
 269,     5.9865,     14.700,    3.394858e-03
 270,     5.9720,     14.700,    3.977962e-03
 271,     5.9474,     14.700,    3.832394e-03
 272,     5.9395,      3.937,    3.197785e-04
 273,     5.9331,     14.700,    4.341848e-03
 274,     5.9269,      5.192,    7.262536e-04
 275,     5.9176,     13.914,    1.630616e-03
 276,     5.9019,     10.847,    2.262410e-03
 277,     5.8956,     14.700,    3.671271e-03
 278,     5.8870,     14.700,    3.135259e-03
 279,     5.8761,     14.700,    2.829420e-03
 280,     5.8640,     14.700,    3.644657e-03
 281,     5.8525,     14.700,    2.818092e-03
 282,     5.8441,     14.700,    1.967211e-03
 283,     5.8328,     14.700,    2.991911e-03
 284,     5.8237,     14.700,    3.599328e-03
 285,     5.8166,      4.277,    1.207412e-03
 286,     5.8101,     14.700,    2.459290e-03
 287,     5.8027,     13.935,    1.497957e-03
 288,     5.7954,     14.700,    2.861072e-03
 289,     5.7861,     10.853,    2.307693e-03
 290,     5.7775,      4.979,    9.308074e-04
 291,     5.7667,     10.463,    2.938183e-03
 292,     5.7582,     14.700,    2.271008e-03
 293,     5.7482,     14.700,    3.140516e-03
 294,     5.7420,     12.201,    1.744847e-03
 295,     5.7310,     14.700,    2.111984e-03
 296,     5.7242,      2.040,    4.673627e-04
 297,     5.7151,     13.539,    1.741694e-03
 298,     5.7037,     14.700,    3.047221e-03
 299,     5.6940,     14.700,    3.022822e-03
 300,     5.6828,     14.700,    2.848776e-03
 301,     5.6696,     13.790,    2.102966e-03
 302,     5.6581,      9.523,    1.535810e-03
 303,     5.6511,      6.205,    8.707030e-04
 304,     5.6444,     14.700,    1.921818e-03
 305,     5.6340,     14.700,    1.904379e-03
 306,     5.6233,     14.700,    3.004074e-03
 307,     5.6109,     14.700,    2.662275e-03
 308,     5.5961,     14.700,    2.965087e-03
 309,     5.5850,     14.700,    1.013708e-03
 310,     5.5768,     13.612,    2.168481e-03
 311,     5.5698,     14.700,    1.748498e-03
 312,     5.5553,     14.700,    2.594250e-03
 313,     5.5447,     14.700,    3.163491e-03
 314,     5.5274,     14.700,    3.559287e-03
 315,     5.5129,     14.700,    2.733883e-03
 316,     5.4958,     14.700,    1.716248e-03
 317,     5.4825,     14.700,    2.702260e-03
 318,     5.4721,      8.874,    1.690478e-03
 319,     5.4653,     11.317,    1.541020e-03
 320,     5.4592,     13.438,    3.883373e-03
 321,     5.4479,     14.700,    2.354299e-03
 322,     5.4401,     14.700,    2.194311e-03
 323,     5.4263,     14.700,    3.130905e-03
 324,     5.4181,      3.209,    4.546998e-04
 325,     5.4110,      0.971,    4.104135e-04
 326,     5.4085,      9.804,    1.102453e-03
 327,     5.4033,     14.578,    2.569596e-03
 328,     5.3965,     14.700,    5.620671e-03
 329,     5.3745,     14.700,    3.497641e-03
 330,     5.3603,     14.700,    4.683092e-03
 331,     5.3424,     14.700,    5.191438e-03
 332,     5.3158,     14.700,    3.733991e-03
 333,     5.2964,     14.700,    2.788639e-03
 334,     5.2831,     14.700,    3.504131e-03
 335,     5.2630,     14.700,    4.034588e-03
 336,     5.2464,     14.700,    5.670008e-03
 337,     5.2292,     14.700,    4.093324e-03
 338,     5.2173,     14.700,    3.911607e-03
 339,     5.2044,     14.700,    3.896450e-03
 340,     5.1921,     14.700,    3.835039e-03
 341,     5.1746,     14.700,    3.855364e-03
 342,     5.1654,     14.700,    2.082611e-03
 343,     5.1518,     14.700,    4.363403e-03
 344,     5.1423,     11.889,    3.039911e-03
 345,     5.1375,     14.700,    2.543418e-03
 346,     5.1306,      7.714,    1.484657e-03
 347,     5.1266,      3.095,    4.745313e-04
 348,     5.1218,     14.700,    3.529564e-03
 349,     5.1055,     14.700,    2.842238e-03
 350,     5.0931,     14.700,    4.328099e-03
 351,     5.0740,     14.700,    3.683624e-03
 352,     5.0622,     14.700,    4.301435e-03
 353,     5.0437,     14.700,    3.386006e-03
 354,     5.0271,     14.700,    4.385368e-03
 355,     5.0131,     14.700,    3.744296e-03
 356,     5.0029,     14.700,    4.675528e-03
 357,     4.9886,     14.700,    3.620119e-03
 358,     4.9728,     14.700,    3.701091e-03
 359,     4.9516,     14.700,    4.387766e-03
 360,     4.9317,     14.700,    4.233093e-03
 361,     4.9056,     14.700,    3.723823e-03
 362,     4.8923,     14.700,    3.872627e-03
 363,     4.8786,     14.700,    3.468481e-03
 364,     4.8678,     14.700,    2.214879e-03
 365,     4.8572,     14.700,    3.483995e-03
 366,     4.8486,     13.015,    2.429036e-03
 367,     4.8426,      9.339,    1.560733e-03
 368,     4.8391,      1.592,    4.689319e-04
 369,     4.8298,     13.344,    2.800188e-03
 370,     4.8244,     11.622,    1.784561e-03
 371,     4.8129,     14.700,    1.473877e-02
 372,     4.8051,     14.700,    1.315558e-02
 373,     4.7969,     14.700,    1.789348e-02
 374,     4.7893,     14.700,    2.689437e-02
 375,     4.7833,     14.700,    2.901557e-02
 376,     4.7794,      4.761,    2.925917e-02
 377,     4.7632,     14.700,    1.735568e-02
 378,     4.7536,     14.700,    1.501130e-02
 379,     4.7423,     14.700,    1.348754e-02
 380,     4.7325,     14.700,    1.374199e-02
 381,     4.7235,     14.700,    1.330557e-02
 382,     4.7060,     14.700,    2.554794e-03
 383,     4.6962,     14.700,    1.537303e-03
 384,     4.6883,     14.561,    2.496082e-03
 385,     4.6798,     14.700,    3.588645e-03
 386,     4.6689,     14.700,    3.812519e-03
 387,     4.6574,     14.609,    2.247825e-03
 388,     4.6366,     14.700,    1.958494e-03
 389,     4.6277,     14.700,    1.674008e-03
 390,     4.6192,     14.700,    1.915185e-03
 391,     4.6105,     13.886,    3.534410e-03
 392,     4.6014,     14.700,    2.271804e-03
 393,     4.5874,     13.832,    1.955751e-03
 394,     4.5835,      5.080,    5.206110e-04
 395,     4.5790,     13.604,    2.325018e-03
 396,     4.5740,     13.200,    9.779289e-04
 397,     4.5609,      4.067,    4.618496e-04
 398,     4.5562,     14.700,    2.551502e-03
 399,     4.5464,      7.244,    8.020225e-04
 400,     4.5383,     14.700,    1.694614e-03
 401,     4.5294,     11.965,    2.385711e-03
 402,     4.5228,     14.700,    2.702764e-03
 403,     4.5159,     13.781,    1.677375e-03
 404,     4.5074,     14.700,    2.840783e-03
 405,     4.4990,     14.700,    2.712535e-03
 406,     4.4777,     14.700,    3.423427e-03
 407,     4.4683,     14.700,    2.073637e-03
 408,     4.4493,     14.700,    2.316511e-03
 409,     4.4419,     14.700,    2.696136e-03
 410,     4.4290,     14.700,    3.701917e-03
 411,     4.4143,     14.700,    3.439185e-03
 412,     4.4049,     14.700,    3.164936e-03
 413,     4.3975,     11.624,    1.010225e-03
 414,     4.3914,      8.673,    1.723999e-03
 415,     4.3821,     14.700,    2.965666e-03
 416,     4.3713,     14.700,    1.984257e-03
 417,     4.3635,      2.769,    1.124804e-03
 418,     4.3574,     14.700,    2.983508e-03
 419,     4.3441,     14.700,    4.149343e-03
 420,     4.3311,     14.700,    4.114420e-03
 421,     4.3275,     12.269,    2.454593e-03
 422,     4.3165,     11.378,    1.277016e-03
 423,     4.3109,     14.700,    2.096715e-03
 424,     4.3020,     14.700,    2.790956e-03
 425,     4.2929,     14.700,    2.949254e-03
 426,     4.2781,     14.700,    3.480489e-03
 427,     4.2673,      7.125,    1.607479e-03
 428,     4.2580,     14.700,    2.009625e-03
 429,     4.2364,     14.700,    2.189758e-03
 430,     4.2246,     14.700,    1.805522e-03
 431,     4.2114,     14.700,    2.663716e-03
 432,     4.1995,     14.700,    2.883927e-03
 433,     4.1916,      5.895,    7.674107e-04
