index,   freq_ppm,   decay_hz, amplitude
   1,     9.0643,     14.700,    3.153561e-03
   2,     9.0472,     14.700,    2.656603e-03
   3,     9.0384,     14.700,    2.270574e-03
   4,     9.0262,     14.700,    2.865335e-03
   5,     9.0124,     14.700,    2.422093e-03
   6,     8.9888,     14.700,    2.930108e-03
   7,     8.9796,     14.700,    2.133898e-03
   8,     8.9730,     14.700,    2.031354e-03
   9,     8.9606,     14.700,    1.841369e-03
  10,     8.9515,      5.405,    3.338851e-04
  11,     8.9383,     14.700,    2.067841e-03
  12,     8.9321,     14.377,    2.897342e-03
  13,     8.9220,     14.356,    1.586503e-03
  14,     8.9009,     14.700,    2.959898e-03
  15,     8.8910,     14.700,    1.822968e-03
  16,     8.8809,     14.700,    2.189588e-03
  17,     8.8747,     13.188,    1.301840e-03
  18,     8.8558,     14.700,    1.852839e-03
  19,     8.8440,     14.700,    2.085059e-03
  20,     8.8368,      8.736,    9.574663e-04
  21,     8.8262,     14.700,    1.875643e-03
  22,     8.8161,     14.698,    2.349207e-03
  23,     8.8052,     14.700,    3.264385e-03
  24,     8.7864,     14.700,    3.841041e-03
  25,     8.7698,     14.700,    4.133103e-03
  26,     8.7566,     14.700,    4.048352e-03
  27,     8.7411,     14.700,    3.120313e-03
  28,     8.7193,     14.700,    4.231530e-03
  29,     8.7023,     14.700,    2.178485e-03
  30,     8.6926,     14.700,    1.949711e-03
  31,     8.6817,     14.700,    1.287848e-03
  32,     8.6695,     14.700,    2.702873e-03
  33,     8.6528,     14.700,    3.899439e-03
  34,     8.6438,     14.700,    2.550855e-03
  35,     8.6372,      0.000,    1.960967e-04
  36,     8.6346,      1.151,    9.546840e-05
  37,     8.6334,     14.700,    7.577261e-04
  38,     8.6214,      8.938,    1.367787e-03
  39,     8.6086,     14.700,    2.884351e-03
  40,     8.5963,     14.700,    3.653629e-03
  41,     8.5783,     14.700,    2.417929e-03
  42,     8.5725,      5.577,    7.586957e-04
  43,     8.5638,     13.974,    5.157154e-03
  44,     8.5416,     14.700,    3.402431e-03
  45,     8.5201,     14.700,    3.814794e-03
  46,     8.5063,     14.700,    3.717570e-03
  47,     8.4975,     14.700,    2.685010e-03
  48,     8.4863,     14.700,    2.147259e-03
  49,     8.4461,      7.740,    1.412064e-01
  50,     8.4447,      9.816,    1.106019e-01
  51,     8.4387,     14.700,    1.747817e-02
  52,     8.4305,     14.700,    6.845206e-03
  53,     8.4232,     14.700,    4.607440e-03
  54,     8.4113,     14.700,    6.713336e-03
  55,     8.4012,     14.700,    5.602852e-03
  56,     8.3956,      6.387,    1.032286e-03
  57,     8.3883,      6.334,    5.555800e-04
  58,     8.3868,      0.752,    1.528618e-04
  59,     8.3828,      9.792,    1.823730e-03
  60,     8.3740,     14.700,    3.639848e-03
  61,     8.3657,     14.700,    1.689316e-03
  62,     8.3580,     14.700,    3.553321e-03
  63,     8.3505,     10.220,    1.619374e-03
  64,     8.3459,      5.162,    4.927565e-04
  65,     8.3209,     14.700,    5.955298e-03
  66,     8.3102,     14.700,    4.213381e-03
  67,     8.2961,     14.700,    4.345783e-03
  68,     8.2808,     14.700,    3.582355e-03
  69,     8.2698,     14.700,    3.339408e-03
  70,     8.2585,     14.700,    2.697875e-03
  71,     8.2342,      0.716,    1.497256e-04
  72,     8.2318,     14.700,    2.070235e-03
  73,     8.2236,      4.066,    4.271912e-04
  74,     8.2182,     12.623,    2.184601e-03
  75,     8.2084,     14.700,    2.389668e-03
  76,     8.1936,     14.700,    1.765179e-03
  77,     8.1854,     14.700,    1.971898e-03
  78,     8.1776,      9.892,    1.085663e-03
  79,     8.1712,     14.700,    2.492753e-03
  80,     8.1561,     14.700,    2.888851e-03
  81,     8.1531,      9.744,    1.297296e-03
  82,     8.1483,      9.266,    1.909895e-03
  83,     8.1419,      1.025,    2.554848e-04
  84,     8.1330,      5.188,    6.503026e-04
  85,     8.1277,     10.294,    2.306169e-03
  86,     8.1109,     14.700,    3.024212e-03
  87,     8.1020,     14.700,    2.568797e-03
  88,     8.0939,     14.700,    1.253912e-03
  89,     8.0838,      9.998,    7.388830e-04
  90,     8.0734,     14.700,    3.066040e-03
  91,     8.0553,     14.700,    2.596359e-03
  92,     8.0467,     14.700,    3.151462e-03
  93,     8.0354,     14.700,    1.541166e-03
  94,     8.0233,     14.700,    2.317832e-03
  95,     8.0121,      5.707,    8.664881e-04
  96,     8.0017,     11.762,    1.279496e-03
  97,     7.9913,     14.700,    2.874622e-03
  98,     7.9821,      0.066,    1.440749e-04
  99,     7.9793,      0.000,    1.276900e-04
 100,     7.9756,     12.976,    2.020600e-03
 101,     7.9565,     14.700,    2.844143e-03
 102,     7.9372,     14.700,    1.147231e-03
 103,     7.9300,     13.131,    2.303186e-03
 104,     7.9159,     14.700,    2.335414e-03
 105,     7.9077,     10.690,    1.331933e-03
 106,     7.8995,      6.086,    9.105975e-04
 107,     7.8925,      8.668,    7.055051e-04
 108,     7.8832,     12.270,    1.137253e-03
 109,     7.8771,     11.819,    1.184887e-03
 110,     7.8666,     14.700,    2.407040e-03
 111,     7.8550,     14.700,    4.300214e-03
 112,     7.8454,     14.700,    2.944275e-03
 113,     7.8399,     11.532,    1.693659e-03
 114,     7.8339,     12.594,    2.909530e-03
 115,     7.8241,      5.514,    7.658500e-04
 116,     7.8142,     14.700,    3.189131e-03
 117,     7.8057,     13.869,    3.485864e-03
 118,     7.7963,     14.700,    2.476949e-03
 119,     7.7838,     14.643,    2.178762e-03
 120,     7.7789,     10.996,    1.254951e-03
 121,     7.7702,     14.700,    2.213265e-03
 122,     7.7640,     13.473,    1.065568e-03
 123,     7.7593,     14.037,    1.906943e-03
 124,     7.7489,      6.547,    3.107104e-04
 125,     7.7380,      7.638,    4.551612e-04
 126,     7.7339,     14.700,    2.922449e-03
 127,     7.7253,     14.700,    2.201812e-03
 128,     7.7200,     10.587,    7.239759e-04
 129,     7.7117,     11.863,    2.021684e-03
 130,     7.7040,     13.422,    1.164308e-03
 131,     7.6905,     14.700,    3.111362e-03
 132,     7.6811,     14.700,    2.689917e-03
 133,     7.6708,     14.700,    2.668314e-03
 134,     7.6416,     14.700,    3.663681e-03
 135,     7.6264,     14.700,    4.157773e-03
 136,     7.5994,     14.700,    2.792121e-03
 137,     7.5905,     14.700,    2.535777e-03
 138,     7.5762,     14.700,    3.156599e-03
 139,     7.5591,     14.700,    3.770475e-03
 140,     7.5432,     14.700,    3.846175e-03
 141,     7.5317,     14.700,    3.583292e-03
 142,     7.5109,     14.700,    1.856952e-03
 143,     7.4827,     14.700,    3.941156e-03
 144,     7.4722,     13.257,    3.379069e-03
 145,     7.4642,     14.700,    3.817114e-03
 146,     7.4533,     14.700,    2.183523e-03
 147,     7.4393,     14.700,    3.233978e-03
 148,     7.4290,     14.700,    2.309188e-03
 149,     7.3986,     14.700,    3.292229e-03
 150,     7.3860,     14.700,    2.608010e-03
 151,     7.3726,     14.700,    3.175551e-03
 152,     7.3630,     14.700,    2.772789e-03
 153,     7.3437,     14.700,    2.193351e-03
 154,     7.3230,     14.700,    2.296478e-03
 155,     7.3102,     14.700,    3.243190e-03
 156,     7.2979,     14.700,    1.943283e-03
 157,     7.2835,     14.700,    2.286835e-03
 158,     7.2768,     14.700,    4.551266e-03
 159,     7.2702,     11.243,    1.774612e-03
 160,     7.2614,     11.742,    1.317680e-03
 161,     7.2556,      4.019,    3.675177e-04
 162,     7.2490,      5.551,    7.577486e-04
 163,     7.2419,     14.700,    1.674043e-03
 164,     7.2311,     10.330,    1.488619e-03
 165,     7.2255,     13.772,    1.352818e-03
 166,     7.2176,     14.700,    1.622716e-03
 167,     7.2099,      2.823,    2.605031e-04
 168,     7.2007,     14.700,    3.718432e-03
 169,     7.1891,     14.700,    1.589914e-03
 170,     7.1847,     10.041,    1.000994e-03
 171,     7.1768,      5.007,    6.756758e-04
 172,     7.1717,     13.564,    1.706571e-03
 173,     7.1637,      1.780,    3.427112e-04
 174,     7.1589,      5.130,    6.746606e-04
 175,     7.1493,     14.700,    2.238385e-03
 176,     7.1405,     14.700,    2.516023e-03
 177,     7.1301,     14.700,    2.630844e-03
 178,     7.1105,     14.700,    2.824457e-03
 179,     7.1006,     14.700,    2.518935e-03
 180,     7.0807,     14.700,    6.804001e-03
 181,     7.0668,     14.700,    2.548053e-03
 182,     7.0551,     12.763,    2.413474e-03
 183,     7.0458,     14.166,    1.571461e-03
 184,     7.0412,     13.341,    1.870397e-03
 185,     7.0357,      4.792,    3.928588e-04
 186,     7.0282,     14.700,    1.922490e-03
 187,     7.0080,     14.700,    1.807759e-03
 188,     6.9973,     14.700,    2.078755e-03
 189,     6.9881,     14.700,    1.558999e-03
 190,     6.9738,     14.700,    2.781610e-03
 191,     6.9546,     14.555,    2.857953e-03
 192,     6.9421,     13.322,    1.901512e-03
 193,     6.9321,     12.253,    1.353393e-03
 194,     6.9202,     13.364,    1.232426e-03
 195,     6.9111,     14.700,    2.350154e-03
 196,     6.9027,     14.700,    1.020805e-03
 197,     6.8945,      0.000,    8.738280e-05
 198,     6.8913,     11.914,    1.389276e-03
 199,     6.8866,      8.727,    1.115919e-03
 200,     6.8834,      1.231,    1.465027e-04
 201,     6.8773,      6.916,    9.013065e-04
 202,     6.8748,     14.700,    2.232520e-03
 203,     6.8709,      1.060,    2.268257e-04
 204,     6.8606,      7.072,    1.337911e-03
 205,     6.8534,     14.224,    1.647306e-03
 206,     6.8439,     12.109,    1.664671e-03
 207,     6.8355,     14.700,    2.534932e-03
 208,     6.8203,     14.700,    3.089957e-03
 209,     6.8080,     14.700,    4.381224e-03
 210,     6.7882,     14.700,    5.112704e-03
 211,     6.7726,     14.700,    4.210272e-03
 212,     6.7636,     14.700,    3.289893e-03
 213,     6.7509,     14.700,    2.101345e-03
 214,     6.7413,      8.582,    1.842195e-03
 215,     6.7327,      9.638,    1.135100e-03
 216,     6.7221,     14.700,    2.694901e-03
 217,     6.7115,     13.011,    2.032890e-03
 218,     6.7004,     14.700,    3.364907e-03
 219,     6.6840,     10.880,    1.809598e-03
 220,     6.6745,     14.700,    1.554046e-03
 221,     6.6655,     14.700,    1.644911e-03
 222,     6.6512,     14.700,    1.742217e-03
 223,     6.6394,     14.700,    1.646657e-03
 224,     6.6269,     14.700,    2.429160e-03
 225,     6.6172,     14.700,    2.807829e-03
 226,     6.6078,     14.700,    2.737049e-03
 227,     6.5825,     14.694,    3.746620e-03
 228,     6.5765,      6.473,    8.984060e-04
 229,     6.5658,     14.700,    1.269355e-03
 230,     6.5522,     14.700,    1.823195e-03
 231,     6.5434,      9.088,    1.131783e-03
 232,     6.5377,      6.703,    1.221706e-03
 233,     6.5316,      7.908,    1.504391e-03
 234,     6.5229,      2.077,    6.733483e-04
 235,     6.5157,     14.700,    1.365505e-03
 236,     6.5096,     14.700,    2.293800e-03
 237,     6.4992,      6.547,    6.833045e-04
 238,     6.4905,     14.700,    3.364896e-03
 239,     6.4818,      9.778,    1.288298e-03
 240,     6.4742,     14.700,    1.912513e-03
 241,     6.4672,     14.700,    2.870784e-03
 242,     6.4583,     11.689,    1.608950e-03
 243,     6.4404,     14.700,    3.143049e-03
 244,     6.4303,     14.700,    2.688174e-03
 245,     6.4136,     14.700,    2.564176e-03
 246,     6.4052,     14.700,    2.081398e-03
 247,     6.3896,     14.700,    1.937146e-03
 248,     6.3802,     14.700,    1.211967e-03
 249,     6.3646,     14.700,    3.972116e-03
 250,     6.3553,     14.700,    2.562683e-03
 251,     6.3426,     14.700,    2.148654e-03
 252,     6.3278,     14.700,    1.298116e-03
 253,     6.3176,     14.700,    2.855199e-03
 254,     6.3095,     14.486,    2.041593e-03
 255,     6.2979,     14.700,    2.663015e-03
 256,     6.2825,     14.700,    2.788680e-03
 257,     6.2694,     14.700,    2.403169e-03
 258,     6.2581,     10.057,    1.423687e-03
 259,     6.2516,     11.245,    2.400250e-03
 260,     6.2399,     14.700,    2.160097e-03
 261,     6.2169,     14.700,    1.969306e-03
 262,     6.2088,     14.700,    3.047743e-03
 263,     6.1960,     14.700,    2.402065e-03
 264,     6.1866,     14.700,    2.266085e-03
 265,     6.1711,     13.485,    2.862890e-03
 266,     6.1571,     13.015,    1.539466e-03
 267,     6.1470,     10.568,    1.858386e-03
 268,     6.1410,     13.134,    1.403367e-03
 269,     6.1354,     14.700,    1.873019e-03
 270,     6.1268,     14.700,    1.562881e-03
 271,     6.1184,     11.506,    1.684527e-03
 272,     6.1115,     14.700,    2.537892e-03
 273,     6.1000,     14.700,    2.235749e-03
 274,     6.0899,     14.700,    1.765899e-03
 275,     6.0784,     14.700,    1.763960e-03
 276,     6.0667,     14.700,    2.400633e-03
 277,     6.0505,     14.700,    2.359022e-03
 278,     6.0178,     14.700,    2.496213e-03
 279,     6.0078,     14.700,    1.890251e-03
 280,     5.9847,     14.700,    2.309121e-03
 281,     5.9694,      5.475,    7.530100e-04
 282,     5.9623,      4.967,    8.171787e-04
 283,     5.9584,      3.820,    4.671768e-04
 284,     5.9517,     10.339,    1.185909e-03
 285,     5.9472,      1.814,    4.318682e-04
 286,     5.9332,     14.700,    2.537044e-03
 287,     5.9224,     14.700,    1.810662e-03
 288,     5.9053,      5.605,    8.914015e-04
 289,     5.8957,     14.700,    2.543986e-03
 290,     5.8828,     14.700,    2.355725e-03
 291,     5.8736,     14.700,    3.171051e-03
 292,     5.8612,     14.700,    2.845837e-03
 293,     5.8506,     14.700,    3.229209e-03
 294,     5.8382,     14.700,    2.444183e-03
 295,     5.8303,     14.700,    1.220425e-03
 296,     5.8171,     14.700,    3.793581e-03
 297,     5.8055,      7.851,    1.128351e-03
 298,     5.7940,     14.700,    1.557716e-03
 299,     5.7862,     14.645,    2.451773e-03
 300,     5.7725,     14.635,    3.592670e-03
 301,     5.7631,     14.700,    3.186293e-03
 302,     5.7521,     14.700,    4.137757e-03
 303,     5.7388,     14.700,    2.592721e-03
 304,     5.7300,     14.700,    2.513477e-03
 305,     5.7197,     14.700,    2.799608e-03
 306,     5.7042,     14.700,    3.506419e-03
 307,     5.6874,     14.700,    1.058767e-03
 308,     5.6760,     14.700,    2.395503e-03
 309,     5.6579,     13.999,    1.219054e-03
 310,     5.6493,     14.700,    2.479459e-03
 311,     5.6445,      5.860,    8.267622e-04
 312,     5.6344,     14.700,    1.996964e-03
 313,     5.6265,     10.350,    1.632962e-03
 314,     5.6157,     12.586,    6.344717e-04
 315,     5.6034,     14.700,    2.422615e-03
 316,     5.5957,     14.549,    2.558658e-03
 317,     5.5842,     12.958,    1.973944e-03
 318,     5.5757,      6.405,    5.849108e-04
 319,     5.5718,      4.107,    5.121710e-04
 320,     5.5694,      2.877,    4.806314e-04
 321,     5.5611,     14.700,    1.671641e-03
 322,     5.5457,     14.700,    2.574875e-03
 323,     5.5345,     14.700,    2.020753e-03
 324,     5.5057,     14.700,    2.671484e-03
 325,     5.4967,     14.700,    1.683708e-03
 326,     5.4826,     14.700,    2.462440e-03
 327,     5.4743,     14.700,    2.940025e-03
 328,     5.4680,      9.187,    5.796859e-04
 329,     5.4574,     10.909,    1.795522e-03
 330,     5.4455,     11.420,    2.179856e-03
 331,     5.4382,     14.142,    1.480294e-03
 332,     5.4310,     14.700,    2.283284e-03
 333,     5.4173,     14.700,    2.828180e-03
 334,     5.4035,     14.700,    2.630630e-03
 335,     5.3902,     14.700,    2.615295e-03
 336,     5.3811,     14.700,    3.050274e-03
 337,     5.3654,     14.700,    2.601566e-03
 338,     5.3546,     14.700,    2.405115e-03
 339,     5.3367,     14.700,    3.509476e-03
 340,     5.3254,      0.388,    1.326061e-04
 341,     5.3215,      6.311,    1.012326e-03
 342,     5.3187,      0.000,    1.878849e-04
 343,     5.3102,     12.273,    1.816370e-03
 344,     5.2998,     14.259,    2.611542e-03
 345,     5.2827,     14.700,    3.574432e-03
 346,     5.2660,     14.700,    4.067571e-03
 347,     5.2544,     14.700,    2.586525e-03
 348,     5.2400,     14.700,    2.663691e-03
 349,     5.2262,     14.700,    3.809460e-03
 350,     5.2091,     14.700,    3.444322e-03
 351,     5.1889,     14.700,    2.823817e-03
 352,     5.1777,     14.700,    3.704832e-03
 353,     5.1655,     14.700,    2.981462e-03
 354,     5.1497,     14.700,    4.294435e-03
 355,     5.1363,     14.700,    3.556769e-03
 356,     5.1212,     14.700,    2.146127e-03
 357,     5.1061,     14.700,    2.191204e-03
 358,     5.0908,     14.700,    2.502868e-03
 359,     5.0765,     14.700,    3.483412e-03
 360,     5.0614,     14.700,    2.509976e-03
 361,     5.0531,     14.700,    2.606670e-03
 362,     5.0392,     14.700,    3.595204e-03
 363,     5.0297,     14.700,    1.391870e-03
 364,     5.0163,     13.597,    1.371737e-03
 365,     5.0097,     14.700,    1.987567e-03
 366,     4.9948,     14.700,    1.334616e-03
 367,     4.9889,     14.700,    3.084162e-03
 368,     4.9643,     14.700,    3.554263e-03
 369,     4.9571,     14.700,    2.920290e-03
 370,     4.9500,     14.700,    2.464373e-03
 371,     4.9397,     14.700,    4.353357e-03
 372,     4.9266,     14.700,    2.698209e-03
 373,     4.9167,     11.861,    1.193581e-03
 374,     4.9103,     13.656,    1.790471e-03
 375,     4.8977,     10.363,    1.842153e-03
 376,     4.8929,      6.560,    1.055016e-03
 377,     4.8817,     14.700,    3.529764e-03
 378,     4.8732,     14.700,    4.828670e-03
 379,     4.8603,     14.700,    4.745786e-03
 380,     4.8469,     14.700,    3.625295e-03
 381,     4.8320,     14.700,    4.160842e-03
 382,     4.8236,     14.700,    4.344834e-03
 383,     4.8074,     14.700,    6.699542e-03
 384,     4.7957,     14.700,    9.093204e-03
 385,     4.7855,     14.700,    6.150770e-03
 386,     4.7778,      1.355,    3.741623e-03
 387,     4.7693,     14.700,    7.950365e-03
 388,     4.7591,     14.700,    1.847531e-02
 389,     4.7528,     11.352,    1.591709e-02
 390,     4.7488,     10.900,    8.978891e-03
 391,     4.7467,      9.465,    1.363683e-02
 392,     4.7413,     14.275,    2.366424e-02
 393,     4.7151,     13.372,    2.657022e-03
 394,     4.7007,     14.700,    1.831462e-03
 395,     4.6825,     14.700,    1.978890e-03
 396,     4.6669,     14.700,    3.921837e-03
 397,     4.6578,     14.700,    2.258236e-03
 398,     4.6513,     14.700,    6.039302e-03
 399,     4.6435,     14.700,    9.631143e-03
 400,     4.6415,      1.669,    2.948452e-04
 401,     4.5638,     11.563,    5.879536e-01
 402,     4.5598,      3.142,    9.685689e-02
 403,     4.5576,      6.034,    2.748739e-01
 404,     4.5550,     11.215,    7.175053e-01
 405,     4.5485,     12.756,    6.358609e-01
 406,     4.4856,     13.379,    7.800529e-04
 407,     4.4722,     11.874,    5.550745e-03
 408,     4.4645,     14.644,    1.041659e-02
 409,     4.4576,     13.556,    4.919999e-03
 410,     4.4559,      0.000,    1.438826e-04
 411,     4.4386,     14.700,    4.445173e-03
 412,     4.4306,     14.700,    5.165407e-03
 413,     4.4244,     14.700,    3.534484e-03
 414,     4.4225,      4.849,    8.286071e-04
 415,     4.4159,      7.069,    1.328072e-03
 416,     4.4080,      4.923,    5.256758e-04
 417,     4.4006,     14.700,    1.461225e-03
 418,     4.3859,     14.700,    2.487756e-03
 419,     4.3706,      9.654,    1.006817e-03
 420,     4.3599,     14.609,    5.913996e-04
 421,     4.3546,     14.700,    2.430152e-03
 422,     4.3455,     14.700,    3.385605e-03
 423,     4.3374,     13.588,    6.850651e-03
 424,     4.3302,     14.700,    9.792097e-03
 425,     4.3276,      0.000,    1.721948e-04
 426,     4.3219,     14.700,    5.610850e-03
 427,     4.3140,     12.441,    2.597341e-03
 428,     4.3076,      0.000,    1.870930e-04
 429,     4.2996,      4.850,    6.227444e-04
 430,     4.2893,     14.700,    2.791228e-03
 431,     4.2549,     13.703,    2.586835e-01
 432,     4.2473,     13.250,    6.997431e-01
 433,     4.2408,      9.266,    3.669103e-01
