index,   freq_ppm,   decay_hz, amplitude
   1,     9.0810,     10.252,    2.233679e-03
   2,     9.0695,     12.354,    1.834520e-03
   3,     9.0637,     14.700,    2.005487e-03
   4,     9.0579,     14.700,    2.044653e-03
   5,     9.0448,     14.700,    2.989693e-03
   6,     9.0327,     14.700,    2.940844e-03
   7,     9.0208,     14.700,    1.473736e-03
   8,     9.0097,     14.700,    2.447951e-03
   9,     8.9945,     14.700,    2.568922e-03
  10,     8.9824,     14.700,    1.869626e-03
  11,     8.9704,     14.700,    2.332938e-03
  12,     8.9609,     14.700,    2.074726e-03
  13,     8.9515,     14.700,    2.541326e-03
  14,     8.9397,     14.700,    1.323575e-03
  15,     8.9206,     14.700,    3.012128e-03
  16,     8.9136,     14.700,    2.298277e-03
  17,     8.8994,     14.700,    1.902548e-03
  18,     8.8886,     14.700,    3.097366e-03
  19,     8.8738,     14.700,    2.255853e-03
  20,     8.8654,     11.746,    1.644103e-03
  21,     8.8512,     14.564,    2.289593e-03
  22,     8.8453,     14.700,    3.084322e-03
  23,     8.8377,     14.700,    2.291359e-03
  24,     8.8219,     12.275,    2.247641e-03
  25,     8.8151,     11.342,    7.793464e-04
  26,     8.8077,     14.700,    2.002725e-03
  27,     8.7951,     14.700,    3.278685e-03
  28,     8.7794,     14.700,    3.123954e-03
  29,     8.7639,     14.700,    2.462019e-03
  30,     8.7512,     14.700,    2.383166e-03
  31,     8.7357,     14.700,    1.755879e-03
  32,     8.7262,     14.700,    3.323970e-03
  33,     8.7167,     12.260,    1.278110e-03
  34,     8.7092,     13.526,    2.695978e-03
  35,     8.6988,      3.538,    3.271852e-04
  36,     8.6901,      9.934,    1.137763e-03
  37,     8.6849,     10.069,    1.363553e-03
  38,     8.6749,     14.700,    2.085870e-03
  39,     8.6644,      8.757,    1.169525e-03
  40,     8.6565,     14.700,    1.581954e-03
  41,     8.6483,     14.700,    3.142633e-03
  42,     8.6386,     14.700,    2.398643e-03
  43,     8.6231,     14.700,    3.276315e-03
  44,     8.6184,     14.700,    2.073036e-03
  45,     8.6004,     14.700,    1.942976e-03
  46,     8.5900,     14.700,    1.692027e-03
  47,     8.5756,     14.700,    1.686389e-03
  48,     8.5642,     14.700,    1.430771e-02
  49,     8.5528,     14.700,    6.463984e-03
  50,     8.5409,     14.700,    6.155699e-03
  51,     8.5314,     14.700,    3.999887e-03
  52,     8.5196,     14.700,    4.363146e-03
  53,     8.5098,     14.700,    4.663279e-03
  54,     8.4975,     10.201,    2.168043e-03
  55,     8.4906,     11.164,    1.714984e-03
  56,     8.4834,      2.298,    3.759944e-04
  57,     8.4790,      7.849,    1.622601e-03
  58,     8.4470,      6.672,    2.359216e-01
  59,     8.4456,      6.019,    4.192275e-01
  60,     8.4440,      9.781,    3.034023e-01
  61,     8.4385,     14.700,    7.155292e-02
  62,     8.4312,     14.700,    3.344849e-02
  63,     8.4198,     14.700,    2.526310e-02
  64,     8.4003,     14.700,    2.182514e-02
  65,     8.3898,     14.700,    4.313772e-03
  66,     8.3830,     11.614,    2.531040e-03
  67,     8.3727,      8.282,    1.213670e-03
  68,     8.3645,     13.747,    1.576377e-03
  69,     8.3574,     14.700,    2.428249e-03
  70,     8.3456,      4.962,    6.286341e-04
  71,     8.3358,     14.700,    2.973472e-03
  72,     8.3208,     13.394,    1.223928e-02
  73,     8.3082,     11.649,    2.510326e-03
  74,     8.2929,     14.700,    2.440502e-03
  75,     8.2825,     14.700,    2.803992e-03
  76,     8.2691,     14.700,    2.141300e-03
  77,     8.2475,     14.700,    3.698755e-03
  78,     8.2364,     14.700,    3.441067e-03
  79,     8.2223,     14.700,    2.447424e-03
  80,     8.2049,     14.700,    2.727333e-03
  81,     8.1921,     14.700,    2.705560e-03
  82,     8.1748,     14.700,    3.140714e-03
  83,     8.1699,     14.700,    1.139374e-03
  84,     8.1645,     12.528,    2.566975e-03
  85,     8.1583,     12.133,    1.797770e-03
  86,     8.1525,     12.836,    2.070299e-03
  87,     8.1424,     12.414,    1.920056e-03
  88,     8.1260,     14.700,    2.165520e-03
  89,     8.1179,     14.700,    2.532853e-03
  90,     8.0946,     14.700,    2.258945e-03
  91,     8.0861,     14.700,    2.246264e-03
  92,     8.0724,     14.700,    2.753712e-03
  93,     8.0557,     14.700,    2.777104e-03
  94,     8.0405,     14.700,    2.404452e-03
  95,     8.0284,     14.700,    2.055171e-03
  96,     8.0195,     14.700,    2.329689e-03
  97,     8.0071,     14.700,    2.105944e-03
  98,     7.9947,     14.700,    1.035952e-03
  99,     7.9887,     14.700,    2.107232e-03
 100,     7.9696,     14.700,    3.016014e-03
 101,     7.9607,     14.700,    1.553459e-03
 102,     7.9500,     14.700,    2.060083e-03
 103,     7.9338,     14.700,    1.753672e-03
 104,     7.9230,     14.700,    2.594555e-03
 105,     7.9089,     14.700,    2.526630e-03
 106,     7.8989,      7.821,    8.556016e-04
 107,     7.8920,     13.154,    2.203680e-03
 108,     7.8833,      6.137,    1.076992e-03
 109,     7.8754,     14.700,    2.540393e-03
 110,     7.8654,     14.700,    9.702394e-03
 111,     7.8560,     14.700,    1.028100e-02
 112,     7.8449,     14.700,    1.404917e-03
 113,     7.8367,     14.700,    1.726622e-03
 114,     7.8260,     14.700,    2.641405e-03
 115,     7.8167,     14.178,    3.454466e-03
 116,     7.8005,     14.649,    4.620540e-03
 117,     7.7849,     14.667,    5.436644e-03
 118,     7.7650,     14.652,    5.080368e-03
 119,     7.7498,     14.633,    3.747129e-03
 120,     7.7293,     14.661,    4.860986e-03
 121,     7.7097,     14.700,    2.483869e-03
 122,     7.7016,      7.875,    3.280443e-04
 123,     7.6977,      5.476,    7.937815e-04
 124,     7.6901,     10.172,    1.479076e-03
 125,     7.6829,     14.700,    1.866749e-03
 126,     7.6751,     14.700,    3.055375e-03
 127,     7.6641,     10.079,    1.456714e-03
 128,     7.6567,      6.674,    1.529076e-03
 129,     7.6513,     12.428,    1.174299e-03
 130,     7.6454,     13.392,    1.499375e-03
 131,     7.6391,     13.801,    2.392903e-03
 132,     7.6292,     14.700,    2.344667e-03
 133,     7.6228,     13.203,    1.863267e-03
 134,     7.6091,     14.700,    1.990893e-03
 135,     7.5989,     14.700,    2.263587e-03
 136,     7.5829,     14.700,    1.786110e-03
 137,     7.5724,      3.799,    4.174719e-04
 138,     7.5618,     14.700,    2.800290e-03
 139,     7.5526,     14.700,    2.572965e-03
 140,     7.5434,     14.700,    5.335920e-03
 141,     7.5339,     14.700,    3.554442e-03
 142,     7.5170,     14.700,    1.632849e-03
 143,     7.5022,     13.195,    2.369225e-03
 144,     7.4908,      8.524,    1.355453e-03
 145,     7.4822,     13.064,    5.959791e-03
 146,     7.4733,     11.969,    8.030836e-03
 147,     7.4699,     13.559,    3.920679e-03
 148,     7.4637,     10.498,    3.253426e-03
 149,     7.4602,      6.159,    1.223977e-03
 150,     7.4545,      9.835,    1.523783e-03
 151,     7.4482,     14.700,    2.952885e-03
 152,     7.4275,     14.700,    2.174868e-03
 153,     7.4209,     14.700,    2.550260e-03
 154,     7.4159,      5.058,    3.066440e-04
 155,     7.4048,      9.990,    1.445469e-03
 156,     7.3963,     14.700,    2.451359e-03
 157,     7.3837,     14.700,    1.335970e-03
 158,     7.3799,      2.902,    3.876516e-04
 159,     7.3748,     11.482,    1.875187e-03
 160,     7.3662,     14.700,    2.740440e-03
 161,     7.3596,     13.064,    8.945259e-04
 162,     7.3462,      7.686,    1.188448e-03
 163,     7.3393,     14.700,    1.658404e-03
 164,     7.3308,      7.549,    8.985958e-04
 165,     7.3239,     14.700,    2.154747e-03
 166,     7.3146,      6.508,    1.094585e-03
 167,     7.3060,     14.700,    1.182597e-03
 168,     7.2949,     14.700,    3.054271e-03
 169,     7.2850,     14.700,    3.321702e-03
 170,     7.2750,      8.175,    1.244835e-03
 171,     7.2645,     12.519,    2.144142e-03
 172,     7.2548,     14.700,    1.908517e-03
 173,     7.2442,     14.700,    2.833250e-03
 174,     7.2307,     10.784,    1.681164e-03
 175,     7.2219,      6.612,    1.150552e-03
 176,     7.2153,     14.700,    2.047501e-03
 177,     7.2060,     14.700,    1.977507e-03
 178,     7.1948,     14.700,    1.567500e-03
 179,     7.1826,     14.700,    1.625282e-03
 180,     7.1740,     14.700,    1.676376e-03
 181,     7.1637,     14.700,    1.179594e-03
 182,     7.1529,     14.700,    3.096304e-03
 183,     7.1393,     14.700,    2.483879e-03
 184,     7.1329,     14.700,    2.232569e-03
 185,     7.1218,     14.700,    2.988460e-03
 186,     7.1131,     14.700,    2.170013e-03
 187,     7.1067,     13.650,    2.585738e-03
 188,     7.0958,     11.259,    1.692630e-03
 189,     7.0886,      7.851,    1.539498e-03
 190,     7.0846,     10.871,    1.812131e-03
 191,     7.0799,     10.222,    4.283559e-03
 192,     7.0736,     12.791,    2.693862e-03
 193,     7.0659,     14.700,    1.636817e-03
 194,     7.0522,     10.604,    1.743770e-03
 195,     7.0485,      5.622,    1.104098e-03
 196,     7.0393,     14.540,    1.165080e-03
 197,     7.0305,      0.849,    2.228514e-04
 198,     7.0257,     11.675,    1.683803e-03
 199,     7.0156,      4.418,    6.054817e-04
 200,     7.0091,     14.700,    2.241687e-03
 201,     6.9995,      3.358,    3.770992e-04
 202,     6.9888,     14.700,    1.656778e-03
 203,     6.9820,     14.700,    2.266615e-03
 204,     6.9707,     14.700,    3.346504e-03
 205,     6.9587,     14.700,    2.018558e-03
 206,     6.9514,      6.269,    9.513127e-04
 207,     6.9438,     14.700,    1.799763e-03
 208,     6.9276,     14.700,    2.591763e-03
 209,     6.9115,     14.700,    1.263741e-03
 210,     6.9038,     10.922,    1.154061e-03
 211,     6.8915,     14.700,    1.998244e-03
 212,     6.8711,     14.700,    2.863611e-03
 213,     6.8507,     14.700,    2.319409e-03
 214,     6.8431,     14.700,    2.062282e-03
 215,     6.8322,     14.700,    2.712369e-03
 216,     6.8236,      6.684,    1.393865e-03
 217,     6.8155,     14.700,    1.850032e-03
 218,     6.7993,     14.700,    2.503249e-03
 219,     6.7762,     14.700,    3.550735e-03
 220,     6.7595,     14.700,    3.886895e-03
 221,     6.7388,     14.700,    2.680470e-03
 222,     6.7301,     14.700,    2.204870e-03
 223,     6.7202,     14.700,    2.285854e-03
 224,     6.7092,     14.700,    2.028483e-03
 225,     6.6928,     14.700,    3.301793e-03
 226,     6.6751,     14.700,    3.651575e-03
 227,     6.6529,     14.700,    1.850694e-03
 228,     6.6351,     14.700,    2.184215e-03
 229,     6.6264,     14.700,    1.849951e-03
 230,     6.6098,     14.700,    2.422325e-03
 231,     6.5983,     14.700,    2.051873e-03
 232,     6.5847,     14.700,    2.162538e-03
 233,     6.5713,     14.700,    1.434783e-03
 234,     6.5595,     14.700,    3.220454e-03
 235,     6.5413,     14.700,    2.102488e-03
 236,     6.5290,     14.700,    2.370009e-03
 237,     6.5101,     14.700,    3.638774e-03
 238,     6.4965,     14.700,    1.955234e-03
 239,     6.4823,     14.700,    2.364347e-03
 240,     6.4659,     14.700,    3.731179e-03
 241,     6.4514,     14.700,    2.530461e-03
 242,     6.4297,     13.967,    1.268130e-03
 243,     6.4204,     14.700,    1.623444e-03
 244,     6.4132,     14.700,    1.710805e-03
 245,     6.4031,     14.700,    1.126212e-03
 246,     6.3883,     14.700,    3.712395e-03
 247,     6.3781,      7.985,    1.168055e-03
 248,     6.3639,     14.700,    6.081311e-03
 249,     6.3545,     14.700,    2.216169e-03
 250,     6.3460,     14.700,    2.690734e-03
 251,     6.3276,     14.700,    2.291296e-03
 252,     6.3105,     14.700,    2.325564e-03
 253,     6.2971,     14.700,    2.373314e-03
 254,     6.2909,     14.700,    3.315695e-03
 255,     6.2799,      7.144,    1.051529e-03
 256,     6.2737,     14.700,    2.587854e-03
 257,     6.2684,      9.471,    2.090751e-03
 258,     6.2620,      9.239,    1.246838e-03
 259,     6.2488,     14.700,    2.716130e-03
 260,     6.2378,     14.700,    2.376955e-03
 261,     6.2292,     14.700,    1.799259e-03
 262,     6.2176,     14.700,    3.606400e-03
 263,     6.2044,     14.700,    1.901882e-03
 264,     6.1934,     14.700,    2.522146e-03
 265,     6.1805,     14.700,    2.876678e-03
 266,     6.1700,     14.700,    1.862573e-03
 267,     6.1519,      4.542,    6.617525e-04
 268,     6.1446,     14.700,    2.959805e-03
 269,     6.1347,      4.193,    6.032821e-04
 270,     6.1301,      8.680,    1.132027e-03
 271,     6.1183,     14.700,    1.581140e-03
 272,     6.1135,      1.479,    2.283771e-04
 273,     6.1085,     14.087,    2.181638e-03
 274,     6.0955,     14.700,    2.136988e-03
 275,     6.0846,     14.700,    3.031418e-03
 276,     6.0719,     14.700,    2.276106e-03
 277,     6.0561,     14.700,    1.646429e-03
 278,     6.0407,     14.700,    2.036911e-03
 279,     6.0315,     14.700,    2.229548e-03
 280,     6.0252,     11.297,    1.808594e-03
 281,     6.0156,     12.795,    9.600542e-04
 282,     6.0061,     14.140,    1.873368e-03
 283,     5.9946,     14.700,    4.117506e-03
 284,     5.9873,      2.630,    4.023747e-04
 285,     5.9795,     14.700,    2.023535e-03
 286,     5.9705,      7.787,    1.139443e-03
 287,     5.9644,     14.700,    2.652983e-03
 288,     5.9577,     14.700,    1.877565e-03
 289,     5.9482,     14.700,    3.862521e-03
 290,     5.9316,     14.700,    3.120991e-03
 291,     5.9137,     14.700,    2.832348e-03
 292,     5.9014,     14.700,    2.489311e-03
 293,     5.8844,     14.700,    2.268750e-03
 294,     5.8698,     14.700,    2.689983e-03
 295,     5.8546,     14.700,    1.955069e-03
 296,     5.8400,     14.700,    2.987662e-03
 297,     5.8323,      7.357,    1.147841e-03
 298,     5.8270,      0.000,    1.380496e-04
 299,     5.8196,     14.700,    8.474810e-04
 300,     5.8130,      6.334,    8.130933e-04
 301,     5.8024,     14.700,    2.181909e-03
 302,     5.7876,     14.700,    2.157592e-03
 303,     5.7724,     14.700,    2.715033e-03
 304,     5.7573,     14.700,    2.137663e-03
 305,     5.7483,     14.700,    1.210335e-03
 306,     5.7324,     14.700,    2.211091e-03
 307,     5.7179,     14.700,    3.246142e-03
 308,     5.7081,     14.700,    3.354148e-03
 309,     5.6968,     14.700,    2.135351e-03
 310,     5.6891,     14.700,    3.451063e-03
 311,     5.6652,     14.700,    2.695908e-03
 312,     5.6510,     14.700,    1.824085e-03
 313,     5.6359,     14.700,    1.856090e-03
 314,     5.6195,     14.700,    1.872584e-03
 315,     5.6045,     14.700,    3.689501e-03
 316,     5.5969,     14.700,    3.141223e-03
 317,     5.5870,     12.995,    2.595884e-03
 318,     5.5779,     14.700,    1.887042e-03
 319,     5.5633,     14.700,    1.849618e-03
 320,     5.5487,     13.671,    2.174293e-03
 321,     5.5383,     12.801,    2.081855e-03
 322,     5.5321,     11.117,    2.207564e-03
 323,     5.5221,      9.397,    1.703812e-03
 324,     5.5134,     12.278,    1.835921e-03
 325,     5.5038,     14.070,    3.546273e-03
 326,     5.4892,     14.700,    1.693861e-03
 327,     5.4756,     14.700,    2.650215e-03
 328,     5.4660,     14.700,    3.006670e-03
 329,     5.4558,     14.700,    3.168974e-03
 330,     5.4495,     10.246,    2.410849e-03
 331,     5.4426,      2.796,    5.347584e-04
 332,     5.4353,     14.700,    2.334986e-03
 333,     5.4250,     14.700,    8.275571e-04
 334,     5.4138,      5.059,    4.764560e-04
 335,     5.4083,     14.700,    1.207664e-03
 336,     5.4023,     14.700,    3.101842e-03
 337,     5.3955,      9.431,    1.865183e-03
 338,     5.3870,     14.700,    1.369432e-03
 339,     5.3782,      7.295,    8.401957e-04
 340,     5.3687,     14.700,    1.876865e-03
 341,     5.3533,     14.700,    1.894012e-03
 342,     5.3437,     14.700,    2.744554e-03
 343,     5.3302,     14.700,    1.893959e-03
 344,     5.3209,     14.700,    2.272202e-03
 345,     5.3011,     14.700,    2.265420e-03
 346,     5.2935,     14.700,    2.206139e-03
 347,     5.2816,     14.700,    2.554433e-03
 348,     5.2670,     14.700,    3.640092e-03
 349,     5.2483,     14.700,    2.524201e-03
 350,     5.2388,     14.700,    2.439010e-03
 351,     5.2287,     14.700,    3.766993e-03
 352,     5.2146,     14.700,    3.501380e-03
 353,     5.2053,     14.700,    2.908850e-03
 354,     5.1975,     14.700,    2.396551e-03
 355,     5.1874,     14.700,    4.591288e-03
 356,     5.1663,     14.700,    2.773854e-03
 357,     5.1500,     12.401,    2.266529e-03
 358,     5.1437,      9.519,    1.438916e-03
 359,     5.1384,     10.808,    1.916619e-03
 360,     5.1331,     12.737,    1.585486e-03
 361,     5.1131,     14.700,    2.961893e-03
 362,     5.1018,     14.700,    3.137135e-03
 363,     5.0828,     14.700,    2.504758e-03
 364,     5.0685,     14.700,    1.707880e-03
 365,     5.0559,     14.700,    2.243830e-03
 366,     5.0484,     14.700,    2.475688e-03
 367,     5.0389,     14.700,    3.626877e-03
 368,     5.0250,     14.700,    3.074279e-03
 369,     4.9980,     14.700,    2.743048e-03
 370,     4.9810,     14.700,    2.978471e-03
 371,     4.9656,     14.700,    3.314808e-03
 372,     4.9538,     14.700,    3.255655e-03
 373,     4.9353,     14.700,    4.381367e-03
 374,     4.9199,     14.700,    1.962571e-03
 375,     4.9092,     14.700,    2.189550e-03
 376,     4.8978,     14.700,    2.967322e-03
 377,     4.8850,     14.700,    2.719069e-03
 378,     4.8715,     14.700,    3.030839e-03
 379,     4.8605,     14.700,    3.405391e-03
 380,     4.8543,     11.932,    2.321664e-03
 381,     4.8473,     12.331,    2.908513e-03
 382,     4.8401,     14.700,    1.954093e-03
 383,     4.8275,     14.700,    5.541730e-02
 384,     4.8188,     14.700,    5.434608e-02
 385,     4.8102,     14.700,    5.568008e-02
 386,     4.8014,     14.700,    5.803535e-02
 387,     4.7927,     14.700,    6.737074e-02
 388,     4.7819,     14.700,    7.174333e-02
 389,     4.7658,     14.700,    5.096869e-02
 390,     4.7572,     14.700,    5.395294e-02
 391,     4.7481,     14.700,    5.500502e-02
 392,     4.7385,     14.700,    5.383559e-02
 393,     4.7286,     14.700,    2.460432e-03
 394,     4.7172,     13.861,    2.507003e-03
 395,     4.7110,      3.950,    3.610601e-04
 396,     4.7048,     14.700,    2.981924e-03
 397,     4.7004,     12.211,    1.618555e-03
 398,     4.6918,     11.327,    1.869179e-03
 399,     4.6837,      6.639,    9.241318e-04
 400,     4.6708,     14.700,    1.656165e-03
 401,     4.6608,     14.700,    2.530028e-03
 402,     4.6519,     14.700,    2.508152e-03
 403,     4.6401,     14.700,    2.597998e-03
 404,     4.6344,      7.010,    7.367222e-04
 405,     4.6273,     13.924,    2.074827e-03
 406,     4.6177,     12.140,    1.787619e-03
 407,     4.6139,     10.984,    2.250022e-03
 408,     4.6083,      3.988,    6.243896e-04
 409,     4.5873,     14.700,    2.108874e-03
 410,     4.5714,     14.700,    3.947072e-03
 411,     4.5632,     14.700,    3.252336e-03
 412,     4.5499,     14.700,    2.552585e-03
 413,     4.5431,     14.700,    3.457846e-03
 414,     4.5349,     14.700,    1.362350e-03
 415,     4.5280,     12.176,    2.129275e-03
 416,     4.5192,      1.283,    1.988684e-04
 417,     4.5121,     12.211,    1.606998e-03
 418,     4.5024,     11.718,    1.199086e-03
 419,     4.4932,     13.685,    2.048270e-03
 420,     4.4880,      6.254,    1.556796e-03
 421,     4.4827,      7.394,    1.067980e-03
 422,     4.4770,     12.502,    2.067832e-03
 423,     4.4702,     10.798,    2.148616e-03
 424,     4.4643,      8.955,    1.204278e-03
 425,     4.4453,      8.194,    8.811739e-04
 426,     4.4382,      9.253,    1.078816e-03
 427,     4.4271,     14.700,    2.914284e-03
 428,     4.4166,     14.700,    3.277400e-03
 429,     4.4020,      7.992,    1.311781e-03
 430,     4.3921,     14.700,    3.408549e-03
 431,     4.3776,     14.700,    2.979081e-03
 432,     4.3604,     14.700,    3.398262e-03
 433,     4.3511,     14.700,    3.248137e-03
