index,   freq_ppm,   decay_hz, amplitude
   1,     9.0894,      9.307,    1.590261e-03
   2,     9.0797,      7.930,    8.891237e-04
   3,     9.0762,     10.827,    1.432683e-03
   4,     9.0709,     14.700,    3.987843e-03
   5,     9.0654,      1.946,    1.441567e-04
   6,     9.0593,     14.700,    2.747976e-03
   7,     9.0312,     14.700,    2.677029e-03
   8,     9.0122,     14.700,    2.254965e-03
   9,     8.9999,     14.700,    2.457104e-03
  10,     8.9917,     14.700,    4.053914e-03
  11,     8.9767,     13.888,    3.346347e-03
  12,     8.9513,     13.628,    2.717813e-03
  13,     8.9406,     14.064,    3.993765e-03
  14,     8.9273,     13.536,    2.255682e-03
  15,     8.9151,     13.692,    3.129996e-03
  16,     8.9075,     13.177,    2.371056e-03
  17,     8.8962,     12.917,    1.650125e-03
  18,     8.8838,     14.700,    2.120665e-03
  19,     8.8759,     10.434,    2.219384e-03
  20,     8.8708,     14.700,    2.822525e-03
  21,     8.8657,     14.700,    2.479567e-03
  22,     8.8564,      6.809,    8.231316e-04
  23,     8.8449,     14.700,    3.275472e-03
  24,     8.8310,      8.949,    1.215425e-03
  25,     8.8255,      9.460,    1.898325e-03
  26,     8.8183,      8.346,    1.189790e-03
  27,     8.8035,     14.700,    3.067317e-03
  28,     8.7945,     12.925,    1.087363e-03
  29,     8.7869,     14.700,    2.424998e-03
  30,     8.7753,     14.700,    3.093325e-03
  31,     8.7594,     14.700,    2.574851e-03
  32,     8.7476,      7.075,    5.839526e-04
  33,     8.7422,      9.157,    1.432952e-03
  34,     8.7369,     14.700,    3.218145e-03
  35,     8.7295,      6.703,    1.114125e-03
  36,     8.7177,     14.700,    3.309592e-03
  37,     8.7089,      6.149,    1.034148e-03
  38,     8.6994,      7.832,    1.722068e-03
  39,     8.6931,     14.700,    9.672315e-04
  40,     8.6862,     14.700,    2.077500e-03
  41,     8.6763,     14.700,    2.631483e-03
  42,     8.6592,     14.700,    1.934407e-03
  43,     8.6496,     14.700,    2.060038e-03
  44,     8.6403,      9.876,    1.516174e-03
  45,     8.6306,      8.775,    1.705323e-03
  46,     8.6218,     14.700,    1.730984e-03
  47,     8.6009,     14.700,    7.870944e-03
  48,     8.5896,     14.700,    6.974941e-03
  49,     8.5643,     14.700,    1.399961e-02
  50,     8.5467,     14.700,    5.683073e-03
  51,     8.5321,     14.700,    7.104026e-03
  52,     8.5135,     14.700,    6.856929e-03
  53,     8.4477,      6.485,    1.500749e-01
  54,     8.4462,      4.701,    2.340405e-01
  55,     8.4447,      6.453,    1.937609e-01
  56,     8.4425,     14.212,    1.084310e-01
  57,     8.4365,     14.700,    3.502577e-02
  58,     8.4265,     14.700,    1.789395e-02
  59,     8.4106,     14.700,    1.413536e-02
  60,     8.3982,     14.700,    3.643322e-03
  61,     8.3884,     14.700,    3.668851e-03
  62,     8.3748,     14.700,    2.272847e-03
  63,     8.3661,     14.700,    2.094483e-03
  64,     8.3587,     12.019,    3.841203e-03
  65,     8.3442,     14.700,    2.444757e-03
  66,     8.3361,      5.887,    1.114499e-03
  67,     8.3206,     14.700,    1.013835e-02
  68,     8.3072,     14.700,    1.797378e-03
  69,     8.2987,      3.631,    4.457479e-04
  70,     8.2930,     14.700,    1.523557e-03
  71,     8.2859,     14.700,    3.335148e-03
  72,     8.2361,      9.101,    3.830501e-02
  73,     8.2347,     10.887,    6.614614e-02
  74,     8.2282,     14.700,    8.114995e-03
  75,     8.1883,     11.350,    1.187882e-01
  76,     8.1815,     14.700,    8.427764e-03
  77,     8.1597,     14.700,    3.205403e-03
  78,     8.1433,     14.700,    2.670339e-03
  79,     8.1329,     14.700,    3.407323e-03
  80,     8.1213,     14.700,    4.236934e-03
  81,     8.1092,     14.700,    2.979252e-03
  82,     8.0867,     14.700,    2.356934e-03
  83,     8.0689,     14.700,    2.050531e-03
  84,     8.0521,     14.700,    6.728427e-03
  85,     8.0401,     14.700,    2.950524e-03
  86,     8.0235,     14.700,    4.376114e-03
  87,     8.0112,     14.700,    2.803377e-03
  88,     7.9866,     14.700,    2.728536e-03
  89,     7.9744,     14.700,    2.267895e-03
  90,     7.9609,     14.700,    2.795885e-03
  91,     7.9555,     11.869,    1.937342e-03
  92,     7.9450,     14.700,    2.770398e-03
  93,     7.9347,     14.700,    2.273412e-03
  94,     7.9280,     14.700,    1.790221e-03
  95,     7.9106,     14.700,    2.999515e-03
  96,     7.8979,      7.779,    1.847282e-03
  97,     7.8896,     14.700,    1.832508e-03
  98,     7.8743,      6.064,    8.088471e-04
  99,     7.8668,      9.662,    3.644744e-03
 100,     7.8641,     11.024,    4.963796e-03
 101,     7.8563,     14.700,    1.149688e-02
 102,     7.8477,     12.576,    2.018522e-03
 103,     7.8418,     10.621,    2.286837e-03
 104,     7.8330,     11.762,    2.139696e-03
 105,     7.8275,      6.958,    1.633302e-03
 106,     7.7959,     14.700,    6.692658e-03
 107,     7.7704,     14.700,    4.967325e-03
 108,     7.7545,     14.700,    4.609070e-03
 109,     7.7346,     14.700,    6.309496e-03
 110,     7.7073,     14.700,    5.349206e-03
 111,     7.6816,     14.700,    5.763546e-03
 112,     7.6660,     14.700,    2.959423e-03
 113,     7.6509,     14.700,    2.797947e-03
 114,     7.6425,     14.700,    3.385280e-03
 115,     7.6318,     14.700,    2.524866e-03
 116,     7.6202,     14.700,    3.075652e-03
 117,     7.6048,     14.700,    2.528497e-03
 118,     7.5933,     14.700,    1.391444e-03
 119,     7.5885,      6.213,    7.534648e-04
 120,     7.5822,      9.168,    1.512492e-03
 121,     7.5762,     13.017,    3.482101e-03
 122,     7.5659,     10.415,    8.104705e-04
 123,     7.5531,     12.375,    2.153032e-03
 124,     7.5432,     12.796,    6.337090e-03
 125,     7.5348,     14.700,    3.100835e-03
 126,     7.5305,     11.332,    1.881214e-03
 127,     7.5242,     10.287,    1.898616e-03
 128,     7.5074,     14.700,    1.238195e-03
 129,     7.4929,     14.700,    2.152504e-03
 130,     7.4816,     14.700,    8.399802e-03
 131,     7.4723,     13.530,    1.205303e-02
 132,     7.4671,     12.950,    2.283668e-03
 133,     7.4630,     12.371,    5.415594e-03
 134,     7.4561,      4.695,    6.655703e-04
 135,     7.4482,     14.700,    2.359371e-03
 136,     7.4399,      7.759,    1.323208e-03
 137,     7.4237,     13.880,    3.891755e-03
 138,     7.4155,      8.348,    9.114995e-04
 139,     7.4026,     14.700,    1.372141e-03
 140,     7.3948,      8.989,    1.676073e-03
 141,     7.3869,      9.553,    1.925130e-03
 142,     7.3753,     14.700,    2.403912e-03
 143,     7.3687,     14.700,    3.989875e-03
 144,     7.3593,     14.700,    2.364166e-03
 145,     7.3458,     14.700,    2.612471e-03
 146,     7.3313,     14.700,    2.368541e-03
 147,     7.3188,      4.361,    8.625725e-04
 148,     7.3104,     13.429,    1.638119e-03
 149,     7.3046,     14.700,    2.148236e-03
 150,     7.2923,     14.700,    1.827793e-03
 151,     7.2866,     11.663,    2.667670e-03
 152,     7.2772,     14.700,    3.369908e-03
 153,     7.2631,     14.700,    3.573921e-03
 154,     7.2559,     14.700,    2.090572e-03
 155,     7.2425,     14.700,    2.937098e-03
 156,     7.2306,      9.515,    2.124608e-03
 157,     7.2224,     14.700,    2.807200e-03
 158,     7.2135,      8.209,    1.755093e-03
 159,     7.2088,     14.700,    1.971158e-03
 160,     7.2000,     14.700,    2.808565e-03
 161,     7.1908,     14.700,    2.206857e-03
 162,     7.1668,     14.700,    3.490289e-03
 163,     7.1475,     14.700,    2.626594e-03
 164,     7.1343,     14.700,    2.631509e-03
 165,     7.1181,     14.700,    3.198485e-03
 166,     7.1076,     14.700,    2.412638e-03
 167,     7.0972,     14.700,    2.956341e-03
 168,     7.0805,     14.700,    7.732543e-03
 169,     7.0569,     14.700,    2.007253e-03
 170,     7.0376,     14.700,    3.118242e-03
 171,     7.0287,     14.700,    3.343702e-03
 172,     7.0181,     14.700,    3.260602e-03
 173,     7.0030,     14.700,    2.786966e-03
 174,     6.9938,      1.018,    2.498060e-04
 175,     6.9914,      6.096,    7.334211e-04
 176,     6.9847,     14.700,    3.267025e-03
 177,     6.9646,     14.700,    2.316214e-03
 178,     6.9491,     14.700,    3.151724e-03
 179,     6.9376,     14.700,    2.223465e-03
 180,     6.9043,     14.700,    3.750535e-03
 181,     6.8897,     14.700,    3.806578e-03
 182,     6.8680,     14.700,    3.926049e-03
 183,     6.8483,     14.700,    2.394308e-03
 184,     6.8423,      6.679,    1.248326e-03
 185,     6.8362,     14.700,    2.737126e-03
 186,     6.8289,     14.700,    2.479763e-03
 187,     6.8166,     14.700,    2.507269e-03
 188,     6.8021,     14.700,    2.862310e-03
 189,     6.7856,     14.700,    2.280134e-03
 190,     6.7759,     14.700,    1.566102e-03
 191,     6.7694,     11.639,    2.040104e-03
 192,     6.7624,      6.989,    6.624698e-04
 193,     6.7537,     14.700,    1.299414e-03
 194,     6.7430,     14.700,    2.988960e-03
 195,     6.7304,     14.700,    2.006894e-03
 196,     6.7248,     14.700,    2.308765e-03
 197,     6.7105,      8.596,    1.501335e-03
 198,     6.7032,     14.700,    1.621500e-03
 199,     6.6921,     14.700,    1.686831e-03
 200,     6.6815,     10.532,    1.762869e-03
 201,     6.6741,     13.954,    2.073491e-03
 202,     6.6639,     13.509,    1.926099e-03
 203,     6.6531,     14.700,    3.012092e-03
 204,     6.6376,     14.700,    3.700671e-03
 205,     6.6295,      7.050,    8.806390e-04
 206,     6.6218,     14.209,    2.767084e-03
 207,     6.6113,      5.381,    5.124144e-04
 208,     6.6064,     11.007,    2.147301e-03
 209,     6.5970,      2.367,    5.891711e-04
 210,     6.5938,     14.700,    2.421115e-03
 211,     6.5807,     14.700,    3.235003e-03
 212,     6.5656,     14.700,    1.995784e-03
 213,     6.5570,     14.700,    1.381255e-03
 214,     6.5495,     14.700,    1.494239e-03
 215,     6.5393,     14.700,    2.361702e-03
 216,     6.5264,     13.129,    2.543758e-03
 217,     6.5184,     14.700,    1.583811e-03
 218,     6.5084,      6.109,    1.155245e-03
 219,     6.4967,     13.776,    2.356391e-03
 220,     6.4916,     14.700,    2.425540e-03
 221,     6.4691,     14.700,    3.954096e-03
 222,     6.4508,     14.700,    3.957869e-03
 223,     6.4337,     14.700,    3.775210e-03
 224,     6.4034,     14.700,    2.595857e-03
 225,     6.3897,     14.700,    4.544005e-03
 226,     6.3634,     14.700,    5.768172e-03
 227,     6.3446,     14.700,    2.454882e-03
 228,     6.3348,     14.700,    2.191275e-03
 229,     6.3232,     14.700,    4.362874e-03
 230,     6.3117,     14.700,    2.748838e-03
 231,     6.2954,     14.700,    4.893670e-03
 232,     6.2821,     14.700,    3.294672e-03
 233,     6.2752,     14.694,    3.083898e-03
 234,     6.2639,      9.556,    1.553194e-03
 235,     6.2577,     14.700,    3.012823e-03
 236,     6.2504,     12.379,    2.823987e-03
 237,     6.2418,     13.702,    3.212723e-03
 238,     6.2303,      5.285,    5.701989e-04
 239,     6.2243,     14.700,    4.644311e-03
 240,     6.2118,      8.388,    6.987207e-04
 241,     6.2060,      8.754,    1.670479e-03
 242,     6.1953,      8.759,    1.236277e-03
 243,     6.1847,     14.700,    2.237420e-03
 244,     6.1696,      5.453,    1.034276e-03
 245,     6.1620,     10.042,    1.533486e-03
 246,     6.1531,     14.700,    1.958054e-03
 247,     6.1427,     14.700,    3.448138e-03
 248,     6.1308,     14.700,    2.518392e-03
 249,     6.1144,     14.700,    3.340152e-03
 250,     6.0988,     14.700,    2.532308e-03
 251,     6.0872,     14.700,    3.766893e-03
 252,     6.0779,     14.700,    5.124104e-03
 253,     6.0563,     14.700,    2.091813e-03
 254,     6.0454,     14.700,    3.550053e-03
 255,     6.0299,     14.700,    3.712086e-03
 256,     6.0117,     14.700,    2.394764e-03
 257,     6.0019,     14.700,    2.758723e-03
 258,     5.9849,     14.700,    4.128808e-03
 259,     5.9656,     14.700,    2.917493e-03
 260,     5.9527,     14.700,    2.239431e-03
 261,     5.9427,     14.700,    3.342290e-03
 262,     5.9299,     14.700,    3.027803e-03
 263,     5.9190,     14.700,    2.349869e-03
 264,     5.9055,     14.700,    2.642130e-03
 265,     5.8954,     14.700,    3.251277e-03
 266,     5.8785,     14.700,    2.785793e-03
 267,     5.8712,     14.700,    2.530420e-03
 268,     5.8577,     14.700,    3.312958e-03
 269,     5.8376,     14.700,    2.026706e-03
 270,     5.8267,     14.700,    2.919202e-03
 271,     5.8134,     14.700,    1.849238e-03
 272,     5.8018,     14.700,    2.348099e-03
 273,     5.7925,     12.263,    2.594422e-03
 274,     5.7845,     14.442,    4.196933e-03
 275,     5.7749,     10.731,    1.958387e-03
 276,     5.7688,      2.713,    8.278114e-04
 277,     5.7588,     14.700,    3.924650e-03
 278,     5.7453,     14.700,    3.716107e-03
 279,     5.7283,     14.700,    3.826904e-03
 280,     5.7042,     14.700,    4.231467e-03
 281,     5.6843,     14.700,    4.793638e-03
 282,     5.6670,     14.700,    3.968445e-03
 283,     5.6483,     14.700,    5.284223e-03
 284,     5.6314,      6.721,    1.067135e-03
 285,     5.6224,     14.700,    3.412585e-03
 286,     5.6149,     14.700,    3.957093e-03
 287,     5.6081,      6.976,    2.098789e-03
 288,     5.6006,     13.389,    2.926349e-03
 289,     5.5900,     14.700,    1.968259e-03
 290,     5.5838,     14.700,    3.113557e-03
 291,     5.5700,     14.700,    3.619396e-03
 292,     5.5592,     14.700,    3.686238e-03
 293,     5.5457,      8.268,    1.569743e-03
 294,     5.5387,      9.366,    1.769354e-03
 295,     5.5306,      5.932,    7.288584e-04
 296,     5.5246,      9.054,    2.025852e-03
 297,     5.5187,      1.920,    3.146047e-04
 298,     5.5120,     11.332,    1.279883e-03
 299,     5.5064,     11.566,    2.924747e-03
 300,     5.4991,     11.588,    2.060765e-03
 301,     5.4924,     13.368,    2.458905e-03
 302,     5.4829,     11.784,    2.385409e-03
 303,     5.4762,      5.843,    1.853170e-03
 304,     5.4703,     13.478,    1.580302e-03
 305,     5.4555,     14.609,    3.408572e-03
 306,     5.4487,     11.730,    2.768996e-03
 307,     5.4351,     14.700,    2.312668e-03
 308,     5.4251,     14.700,    3.419934e-03
 309,     5.4155,     14.700,    3.982523e-03
 310,     5.3995,     14.700,    3.349069e-03
 311,     5.3852,     14.700,    3.890149e-03
 312,     5.3685,     14.700,    3.628489e-03
 313,     5.3475,     14.700,    4.431483e-03
 314,     5.3196,     14.700,    2.896399e-03
 315,     5.3090,     14.700,    3.294896e-03
 316,     5.2941,     14.700,    3.491410e-03
 317,     5.2722,     14.700,    2.512096e-03
 318,     5.2402,     14.700,    3.269989e-03
 319,     5.2296,     14.700,    3.282605e-03
 320,     5.2193,     14.700,    3.608423e-03
 321,     5.2099,     14.700,    3.598933e-03
 322,     5.2018,     14.700,    2.663421e-03
 323,     5.1889,     14.700,    3.101127e-03
 324,     5.1819,     14.700,    3.140162e-03
 325,     5.1648,     14.700,    3.066362e-03
 326,     5.1545,     14.700,    2.837206e-03
 327,     5.1392,     14.700,    4.676667e-03
 328,     5.1256,     14.700,    2.756666e-03
 329,     5.1047,     14.700,    4.121740e-03
 330,     5.0944,      9.490,    1.533322e-03
 331,     5.0884,     11.869,    2.212949e-03
 332,     5.0790,     10.280,    2.716816e-03
 333,     5.0746,      5.941,    6.082458e-04
 334,     5.0636,     14.700,    2.229637e-03
 335,     5.0553,     14.700,    2.742459e-03
 336,     5.0458,     14.700,    4.409419e-03
 337,     5.0307,     14.700,    3.046488e-03
 338,     5.0179,     14.700,    3.681337e-03
 339,     4.9970,     14.700,    3.237046e-03
 340,     4.9835,     14.700,    4.070691e-03
 341,     4.9668,     14.700,    4.513293e-03
 342,     4.9564,     14.700,    4.362656e-03
 343,     4.9439,     14.700,    4.443484e-03
 344,     4.9172,     14.700,    5.645287e-03
 345,     4.9145,     12.412,    4.165309e-03
 346,     4.9093,      8.601,    1.124536e-03
 347,     4.8992,     14.700,    3.571575e-03
 348,     4.8915,     14.700,    1.876521e-03
 349,     4.8860,     12.847,    4.449503e-03
 350,     4.8680,     14.700,    3.564079e-03
 351,     4.8537,     14.700,    4.273429e-03
 352,     4.8397,     14.700,    4.275309e-03
 353,     4.8253,     14.700,    3.887984e-03
 354,     4.8159,     14.700,    4.869975e-03
 355,     4.8027,     14.700,    1.585584e-01
 356,     4.7882,     14.700,    1.645813e-01
 357,     4.7654,     14.700,    1.479742e-01
 358,     4.7533,     14.700,    1.435144e-01
 359,     4.7408,     14.700,    1.365530e-01
 360,     4.7287,     14.700,    1.379749e-01
 361,     4.7162,     14.700,    1.481140e-01
 362,     4.7065,     14.700,    3.889141e-03
 363,     4.6807,     14.700,    4.320802e-03
 364,     4.6708,     14.700,    3.879638e-03
 365,     4.6575,     14.700,    4.516738e-03
 366,     4.6478,     14.700,    4.522330e-03
 367,     4.6220,     14.700,    3.898421e-03
 368,     4.5967,     14.700,    2.497046e-03
 369,     4.5860,     14.700,    2.435253e-03
 370,     4.5727,     14.700,    6.415539e-03
 371,     4.5640,     14.700,    4.197449e-03
 372,     4.5556,     11.288,    1.156311e-03
 373,     4.5407,     14.700,    3.007582e-03
 374,     4.5330,     14.700,    1.903744e-03
 375,     4.5172,     14.700,    2.017234e-03
 376,     4.4929,     14.700,    4.308222e-03
 377,     4.4837,     14.700,    3.972223e-03
 378,     4.4691,     14.700,    2.275117e-03
 379,     4.4510,     14.700,    3.223460e-03
 380,     4.4416,     14.700,    1.382231e-03
 381,     4.4313,      5.036,    9.686309e-04
 382,     4.4268,      8.502,    2.463946e-03
 383,     4.4201,     10.406,    2.206612e-03
 384,     4.4117,     14.700,    2.362883e-03
 385,     4.4048,     14.700,    3.185616e-03
 386,     4.3989,     12.730,    2.258314e-03
 387,     4.3879,     12.687,    1.588984e-03
 388,     4.3825,     12.989,    1.988525e-03
 389,     4.3689,     14.700,    2.961140e-03
 390,     4.3572,     14.700,    3.389479e-03
 391,     4.3480,     14.700,    2.517307e-03
 392,     4.3413,     12.215,    2.727910e-03
 393,     4.3313,      7.237,    1.232495e-03
 394,     4.3240,     11.813,    2.325228e-03
 395,     4.3147,     13.323,    1.957583e-03
 396,     4.3061,      4.048,    5.338254e-04
 397,     4.2999,     14.026,    1.740038e-03
 398,     4.2929,      3.723,    7.474724e-04
 399,     4.2867,     14.700,    3.201806e-03
 400,     4.2812,      1.195,    2.084403e-04
 401,     4.2713,     14.700,    3.010488e-03
 402,     4.2642,      9.207,    1.844272e-03
 403,     4.2554,     13.691,    3.764071e-03
 404,     4.2487,     10.608,    2.327408e-03
 405,     4.2412,     11.788,    2.657739e-03
 406,     4.2360,      4.514,    7.200253e-04
 407,     4.2257,      8.466,    1.715083e-03
 408,     4.2160,     14.700,    3.345140e-03
 409,     4.2044,     14.700,    2.640076e-03
 410,     4.1962,     14.700,    1.705330e-03
 411,     4.1873,     11.784,    1.679360e-03
 412,     4.1804,     13.873,    2.695896e-03
 413,     4.1710,     14.700,    3.698912e-03
 414,     4.1596,      3.995,    8.078681e-04
 415,     4.1523,     14.700,    1.356328e-03
 416,     4.1341,     14.700,    7.652616e-03
 417,     4.1258,     10.141,    1.497827e-03
 418,     4.1167,     14.700,    5.691668e-03
 419,     4.0463,      8.867,    1.985286e-01
 420,     4.0450,      7.351,    2.171324e-01
 421,     4.0434,      9.985,    1.242175e-01
 422,     4.0385,     14.700,    2.677521e-02
 423,     4.0288,     14.477,    7.953440e-02
 424,     4.0255,     13.537,    9.994534e-02
 425,     4.0221,     13.462,    7.946932e-02
 426,     3.9641,     14.700,    2.519811e-03
 427,     3.9524,     13.823,    7.236301e-03
 428,     3.9338,     14.700,    5.438773e-03
 429,     3.9278,     14.700,    3.923391e-03
 430,     3.9205,     14.700,    5.097147e-03
 431,     3.9084,     14.700,    4.273376e-03
 432,     3.8953,     10.756,    3.566803e-03
 433,     3.8881,     14.700,    5.154586e-03
