index,   freq_ppm,   decay_hz, amplitude
   1,     9.0933,     14.700,    2.282613e-03
   2,     9.0871,     14.700,    3.881506e-03
   3,     9.0765,     14.700,    3.062517e-03
   4,     9.0688,      8.206,    1.698446e-03
   5,     9.0593,     14.700,    4.015182e-03
   6,     9.0451,     14.700,    3.935602e-03
   7,     9.0277,     14.700,    2.535702e-03
   8,     9.0118,     14.700,    2.355218e-03
   9,     9.0015,     14.700,    1.632225e-03
  10,     8.9839,     14.700,    4.272025e-03
  11,     8.9721,     14.700,    3.557395e-03
  12,     8.9615,      9.833,    3.310244e-03
  13,     8.9543,      9.778,    1.538487e-03
  14,     8.9489,      6.608,    1.801062e-03
  15,     8.9415,      9.011,    2.131051e-03
  16,     8.9336,     14.288,    5.418574e-03
  17,     8.9205,     14.700,    3.304443e-03
  18,     8.9101,     14.700,    4.185947e-03
  19,     8.8931,     14.700,    4.400813e-03
  20,     8.8823,     14.700,    4.589540e-03
  21,     8.8746,     14.700,    3.315842e-03
  22,     8.8652,     14.700,    4.730324e-03
  23,     8.8546,     14.700,    4.342017e-03
  24,     8.8412,     14.700,    4.112902e-03
  25,     8.8286,     14.700,    3.831109e-03
  26,     8.8153,     14.700,    3.014841e-03
  27,     8.8050,      6.114,    1.698496e-03
  28,     8.7978,     13.484,    2.948076e-03
  29,     8.7861,     14.700,    2.038141e-03
  30,     8.7738,     14.700,    3.791907e-03
  31,     8.7663,      7.853,    2.019398e-03
  32,     8.7608,     10.225,    3.306917e-03
  33,     8.7489,     14.700,    3.896138e-03
  34,     8.7392,     14.700,    4.087216e-03
  35,     8.7304,     14.700,    3.575112e-03
  36,     8.7117,     14.700,    3.978943e-03
  37,     8.6975,     14.700,    3.940474e-03
  38,     8.6832,     14.700,    3.579214e-03
  39,     8.6684,     14.700,    4.272388e-03
  40,     8.6510,     14.700,    2.985668e-03
  41,     8.6193,     14.700,    3.850715e-03
  42,     8.6069,     14.700,    3.739848e-03
  43,     8.5838,     14.700,    4.073095e-03
  44,     8.5643,     14.700,    9.211897e-03
  45,     8.5575,     14.700,    5.184830e-03
  46,     8.5471,     14.700,    4.543196e-03
  47,     8.5392,     14.134,    2.952862e-03
  48,     8.5326,      8.813,    2.312562e-03
  49,     8.5261,      7.095,    2.099823e-03
  50,     8.5195,     14.700,    4.550406e-03
  51,     8.5084,     14.700,    4.206990e-03
  52,     8.4612,      6.516,    2.397692e-03
  53,     8.4474,      6.135,    1.151516e-01
  54,     8.4459,      5.713,    2.338029e-01
  55,     8.4443,      9.082,    1.857243e-01
  56,     8.4391,     14.700,    4.287400e-02
  57,     8.4320,     14.700,    2.191406e-02
  58,     8.4224,     14.700,    1.413994e-02
  59,     8.4088,     14.700,    1.322298e-02
  60,     8.3990,     14.700,    5.462899e-03
  61,     8.3908,     14.700,    4.224026e-03
  62,     8.3831,     14.700,    4.984025e-03
  63,     8.3712,     14.700,    3.071117e-03
  64,     8.3571,     14.700,    5.079057e-03
  65,     8.3454,      7.060,    2.228207e-03
  66,     8.3298,     14.700,    4.265333e-03
  67,     8.3200,     14.700,    9.314363e-03
  68,     8.3075,     14.700,    3.845906e-03
  69,     8.2945,     14.700,    4.615372e-03
  70,     8.2777,     14.700,    3.565922e-03
  71,     8.2614,      6.907,    1.718824e-03
  72,     8.2558,      4.322,    1.222668e-03
  73,     8.2499,      5.628,    1.849699e-03
  74,     8.2360,     11.446,    6.724989e-02
  75,     8.2279,     14.700,    6.199700e-03
  76,     8.1887,     11.641,    7.496746e-02
  77,     8.1790,     14.700,    6.674265e-03
  78,     8.1659,     14.700,    4.203433e-03
  79,     8.1433,     14.700,    3.570394e-03
  80,     8.1247,     14.700,    3.639745e-03
  81,     8.1082,     14.700,    4.636701e-03
  82,     8.0931,     14.700,    4.013024e-03
  83,     8.0771,     14.700,    3.167523e-03
  84,     8.0691,     12.267,    1.525920e-03
  85,     8.0585,      6.413,    1.960748e-03
  86,     8.0511,     11.305,    3.004350e-03
  87,     8.0402,     14.700,    2.799781e-03
  88,     8.0295,     14.700,    4.246499e-03
  89,     8.0174,     14.700,    4.833052e-03
  90,     8.0018,     14.700,    4.708364e-03
  91,     7.9891,      9.532,    2.031180e-03
  92,     7.9806,     14.700,    3.875434e-03
  93,     7.9747,     14.700,    3.304186e-03
  94,     7.9633,      7.995,    2.521605e-03
  95,     7.9564,      4.930,    1.619765e-03
  96,     7.9450,     14.700,    3.957004e-03
  97,     7.9266,     10.550,    2.110035e-03
  98,     7.9170,     12.703,    2.602489e-03
  99,     7.9105,      9.267,    3.048312e-03
 100,     7.9011,     14.256,    3.021276e-03
 101,     7.8941,      3.264,    9.650938e-04
 102,     7.8891,      5.435,    1.639572e-03
 103,     7.8813,     14.700,    1.943992e-03
 104,     7.8658,     14.700,    1.307181e-02
 105,     7.8621,      3.068,    4.068236e-04
 106,     7.8559,     14.700,    1.600672e-02
 107,     7.8240,     14.700,    3.237498e-03
 108,     7.8074,     14.700,    4.975459e-03
 109,     7.7822,     14.700,    4.856300e-03
 110,     7.7674,     14.700,    4.408421e-03
 111,     7.7524,      5.248,    1.988885e-03
 112,     7.7469,      5.603,    1.159414e-03
 113,     7.7421,      5.853,    1.974559e-03
 114,     7.7353,      6.954,    1.945550e-03
 115,     7.7305,      4.083,    6.424109e-04
 116,     7.7215,     14.700,    2.831339e-03
 117,     7.7128,     11.570,    2.993572e-03
 118,     7.7035,      4.829,    1.305078e-03
 119,     7.6961,      4.006,    9.826772e-04
 120,     7.6913,      2.218,    5.922280e-04
 121,     7.6859,     14.700,    3.138746e-03
 122,     7.6727,     10.858,    3.304718e-03
 123,     7.6607,     14.700,    3.631514e-03
 124,     7.6465,     14.700,    3.083163e-03
 125,     7.6333,     14.700,    6.056040e-03
 126,     7.6241,     14.700,    4.124049e-03
 127,     7.6176,      6.335,    1.955854e-03
 128,     7.6100,     14.700,    3.357141e-03
 129,     7.6024,      5.579,    1.247147e-03
 130,     7.5921,     14.700,    4.380837e-03
 131,     7.5850,      5.331,    1.336792e-03
 132,     7.5776,     12.355,    3.975385e-03
 133,     7.5716,      8.149,    2.469349e-03
 134,     7.5640,      8.522,    2.548924e-03
 135,     7.5550,     14.700,    4.555375e-03
 136,     7.5434,     14.700,    7.965653e-03
 137,     7.5346,     14.700,    7.192423e-03
 138,     7.5200,     14.700,    4.200927e-03
 139,     7.5064,     14.700,    3.193811e-03
 140,     7.4942,      5.228,    1.418552e-03
 141,     7.4827,      6.877,    3.033007e-03
 142,     7.4805,     10.446,    4.199820e-03
 143,     7.4723,     13.844,    1.294335e-02
 144,     7.4664,      9.345,    2.463602e-03
 145,     7.4631,     14.700,    8.799614e-03
 146,     7.4526,     14.700,    3.304485e-03
 147,     7.4443,     14.700,    3.015618e-03
 148,     7.4332,     14.700,    4.024175e-03
 149,     7.4171,     14.700,    4.593522e-03
 150,     7.4001,     14.700,    4.719132e-03
 151,     7.3933,      4.708,    6.650860e-04
 152,     7.3875,     13.976,    4.155353e-03
 153,     7.3810,      5.308,    9.840267e-04
 154,     7.3735,      8.538,    1.981060e-03
 155,     7.3679,     11.743,    3.385855e-03
 156,     7.3605,      4.882,    1.684793e-03
 157,     7.3558,      7.551,    2.840881e-03
 158,     7.3494,      7.838,    2.007650e-03
 159,     7.3415,     13.725,    4.210886e-03
 160,     7.3305,      8.638,    2.034027e-03
 161,     7.3156,     14.700,    3.491188e-03
 162,     7.3022,     14.700,    3.394335e-03
 163,     7.2943,     14.700,    2.728909e-03
 164,     7.2762,     10.391,    1.992083e-03
 165,     7.2625,     14.700,    3.212302e-03
 166,     7.2392,     14.700,    4.298401e-03
 167,     7.2275,     14.700,    5.045747e-03
 168,     7.2172,     10.011,    2.700637e-03
 169,     7.2084,      6.658,    1.722686e-03
 170,     7.1997,     14.700,    3.759124e-03
 171,     7.1870,     14.700,    4.203113e-03
 172,     7.1699,     14.700,    3.652929e-03
 173,     7.1572,     14.700,    4.536713e-03
 174,     7.1440,     14.700,    3.905571e-03
 175,     7.1335,     14.700,    2.293770e-03
 176,     7.1214,     14.700,    2.693704e-03
 177,     7.1124,      5.718,    1.864572e-03
 178,     7.1043,      4.764,    1.247786e-03
 179,     7.0962,     14.700,    2.581893e-03
 180,     7.0793,     14.700,    5.681815e-03
 181,     7.0715,     14.700,    3.198340e-03
 182,     7.0622,     14.700,    4.208933e-03
 183,     7.0460,     14.700,    4.529700e-03
 184,     7.0238,     14.700,    3.520235e-03
 185,     6.9935,     14.700,    3.544491e-03
 186,     6.9725,     14.700,    4.371127e-03
 187,     6.9569,     14.700,    2.878816e-03
 188,     6.9411,     14.700,    4.000086e-03
 189,     6.9183,     14.700,    6.783947e-03
 190,     6.8167,     14.700,    4.903459e-03
 191,     6.8043,     14.700,    3.926504e-03
 192,     6.7925,     11.513,    4.232409e-03
 193,     6.7840,     14.385,    4.614843e-03
 194,     6.7774,     11.334,    3.161973e-03
 195,     6.7701,      6.116,    2.365012e-03
 196,     6.7645,      8.307,    2.435643e-03
 197,     6.7521,     14.700,    4.185078e-03
 198,     6.7429,     14.700,    5.400630e-03
 199,     6.7329,     14.700,    4.647330e-03
 200,     6.7207,     14.700,    2.947798e-03
 201,     6.7095,     14.700,    5.073315e-03
 202,     6.6928,     14.700,    4.916030e-03
 203,     6.6734,     14.700,    4.806869e-03
 204,     6.6561,     10.689,    3.023111e-03
 205,     6.6480,     14.700,    3.166107e-03
 206,     6.6400,      2.116,    9.028529e-04
 207,     6.6340,      7.393,    2.259800e-03
 208,     6.6303,     14.700,    5.641422e-03
 209,     6.6183,     14.700,    3.848260e-03
 210,     6.6108,     14.700,    3.351140e-03
 211,     6.5965,     14.700,    2.540282e-03
 212,     6.5849,     14.700,    2.852812e-03
 213,     6.5749,      4.290,    8.744270e-04
 214,     6.5675,     14.700,    3.165062e-03
 215,     6.5505,     14.700,    4.611843e-03
 216,     6.5367,     14.700,    4.242339e-03
 217,     6.5280,     14.700,    3.693472e-03
 218,     6.5159,     14.700,    2.915175e-03
 219,     6.5015,     14.700,    4.919237e-03
 220,     6.4923,      6.251,    2.257662e-03
 221,     6.4847,      5.617,    2.475215e-03
 222,     6.4769,     14.700,    3.424416e-03
 223,     6.4676,     14.700,    3.683235e-03
 224,     6.4585,     14.700,    3.014605e-03
 225,     6.4480,      5.804,    1.994347e-03
 226,     6.4421,      6.249,    1.520788e-03
 227,     6.4339,     14.700,    3.506881e-03
 228,     6.4251,      5.079,    1.486836e-03
 229,     6.4169,     14.700,    4.489943e-03
 230,     6.4103,      9.878,    2.499626e-03
 231,     6.3985,     14.700,    4.854111e-03
 232,     6.3867,     14.700,    4.416366e-03
 233,     6.3777,     14.700,    3.077186e-03
 234,     6.3641,     14.700,    5.973643e-03
 235,     6.3507,     14.700,    3.617893e-03
 236,     6.3390,     14.700,    3.840947e-03
 237,     6.3271,     14.700,    3.065290e-03
 238,     6.3162,     14.700,    3.302725e-03
 239,     6.2973,     14.700,    3.789862e-03
 240,     6.2840,     14.700,    3.919478e-03
 241,     6.2747,     14.700,    3.993803e-03
 242,     6.2666,     14.700,    2.485974e-03
 243,     6.2582,     14.700,    2.141981e-03
 244,     6.2475,     14.700,    2.841353e-03
 245,     6.2399,     11.841,    2.377598e-03
 246,     6.2328,      8.313,    2.888788e-03
 247,     6.2277,      3.337,    5.695442e-04
 248,     6.2241,      5.963,    2.038313e-03
 249,     6.2193,      9.015,    2.606714e-03
 250,     6.2154,      8.092,    1.467324e-03
 251,     6.2094,      7.046,    2.207274e-03
 252,     6.2024,      7.733,    1.851856e-03
 253,     6.1987,      6.207,    2.401858e-03
 254,     6.1917,      5.664,    1.641439e-03
 255,     6.1831,     14.700,    4.030369e-03
 256,     6.1764,      8.563,    2.967347e-03
 257,     6.1700,     11.141,    3.616463e-03
 258,     6.1642,     10.045,    3.123776e-03
 259,     6.1582,      7.323,    2.369023e-03
 260,     6.1511,      6.956,    1.830403e-03
 261,     6.1408,     14.700,    3.267547e-03
 262,     6.1324,      8.926,    2.177367e-03
 263,     6.1230,     14.700,    3.105790e-03
 264,     6.1153,      7.127,    1.475670e-03
 265,     6.1083,     12.294,    3.719194e-03
 266,     6.1016,     14.700,    4.367682e-03
 267,     6.0903,     14.700,    5.651098e-03
 268,     6.0802,      8.980,    2.609222e-03
 269,     6.0721,     14.700,    3.959978e-03
 270,     6.0635,     14.700,    5.390197e-03
 271,     6.0527,     14.700,    6.374510e-03
 272,     6.0382,     14.700,    5.955489e-03
 273,     6.0216,     14.700,    4.508957e-03
 274,     6.0114,     14.700,    4.513832e-03
 275,     6.0023,     14.700,    3.781749e-03
 276,     5.9912,     14.700,    3.110526e-03
 277,     5.9765,     14.700,    2.682662e-03
 278,     5.9672,      8.926,    2.766629e-03
 279,     5.9580,     14.700,    2.149213e-03
 280,     5.9503,      8.663,    2.599157e-03
 281,     5.9403,      6.802,    1.885234e-03
 282,     5.9345,      8.194,    2.308694e-03
 283,     5.9290,      7.324,    2.120721e-03
 284,     5.9188,     10.887,    3.502577e-03
 285,     5.9044,     14.700,    5.520050e-03
 286,     5.8946,      8.073,    2.523768e-03
 287,     5.8858,     14.700,    4.457482e-03
 288,     5.8733,     14.700,    3.800821e-03
 289,     5.8634,     14.700,    2.586427e-03
 290,     5.8519,      9.122,    3.170264e-03
 291,     5.8430,     14.700,    4.178263e-03
 292,     5.8354,     14.400,    2.869664e-03
 293,     5.8227,      7.750,    1.647750e-03
 294,     5.8164,      6.417,    1.788666e-03
 295,     5.8058,     10.971,    3.586992e-03
 296,     5.7988,      4.816,    1.630914e-03
 297,     5.7945,      6.364,    1.246300e-03
 298,     5.7903,     14.700,    2.311887e-03
 299,     5.7840,     11.932,    3.525848e-03
 300,     5.7765,      5.502,    1.600417e-03
 301,     5.7693,      8.773,    9.577887e-04
 302,     5.7621,     14.096,    2.537441e-03
 303,     5.7492,     14.700,    2.773148e-03
 304,     5.7334,     14.700,    2.847903e-03
 305,     5.7219,     14.700,    1.641505e-03
 306,     5.7137,      9.551,    2.895991e-03
 307,     5.7042,     14.700,    4.601790e-03
 308,     5.6939,     14.700,    3.586366e-03
 309,     5.6827,     14.700,    3.142343e-03
 310,     5.6712,     14.700,    3.285316e-03
 311,     5.6596,     14.700,    3.470964e-03
 312,     5.6366,     14.700,    3.762357e-03
 313,     5.6237,     14.700,    3.158606e-03
 314,     5.6112,     14.700,    3.888053e-03
 315,     5.5955,     14.700,    3.497587e-03
 316,     5.5813,     14.700,    3.673594e-03
 317,     5.5698,      9.560,    2.925380e-03
 318,     5.5644,      8.088,    2.493437e-03
 319,     5.5570,      8.329,    2.405064e-03
 320,     5.5503,      8.624,    1.553578e-03
 321,     5.5468,      5.928,    2.115128e-03
 322,     5.5403,      5.826,    2.245613e-03
 323,     5.5349,      6.203,    1.807385e-03
 324,     5.5252,     14.700,    4.380431e-03
 325,     5.5143,     14.700,    2.506420e-03
 326,     5.5001,     14.700,    3.329895e-03
 327,     5.4880,     14.700,    2.269554e-03
 328,     5.4729,     14.700,    3.480716e-03
 329,     5.4641,     14.700,    4.397802e-03
 330,     5.4542,      3.893,    1.134555e-03
 331,     5.4468,      8.406,    2.787078e-03
 332,     5.4426,     13.474,    1.972969e-03
 333,     5.4377,      6.472,    1.581965e-03
 334,     5.4290,      7.981,    1.225288e-03
 335,     5.4231,     14.700,    3.805960e-03
 336,     5.4125,     14.700,    4.161939e-03
 337,     5.4016,      3.282,    7.682633e-04
 338,     5.3955,      4.550,    1.261530e-03
 339,     5.3775,     14.700,    6.644113e-03
 340,     5.3578,     14.700,    5.316932e-03
 341,     5.3444,     14.700,    5.110766e-03
 342,     5.3312,     14.700,    4.066458e-03
 343,     5.3050,     14.700,    5.084363e-03
 344,     5.2949,     14.700,    4.255081e-03
 345,     5.2802,     14.700,    4.314476e-03
 346,     5.2645,     14.700,    3.453937e-03
 347,     5.2515,     14.700,    3.988682e-03
 348,     5.2377,     14.700,    4.281468e-03
 349,     5.2259,     14.700,    3.275077e-03
 350,     5.2135,     14.700,    5.469044e-03
 351,     5.2031,     14.700,    4.947475e-03
 352,     5.1882,     14.700,    4.766667e-03
 353,     5.1805,     14.700,    3.833405e-03
 354,     5.1620,     14.700,    5.409188e-03
 355,     5.1485,     14.700,    4.489412e-03
 356,     5.1382,     14.700,    4.112266e-03
 357,     5.1240,     14.700,    4.701952e-03
 358,     5.1141,     14.700,    3.214802e-03
 359,     5.1009,     14.700,    3.648115e-03
 360,     5.0900,     11.556,    3.159847e-03
 361,     5.0843,      4.068,    1.117777e-03
 362,     5.0781,      5.797,    1.383278e-03
 363,     5.0721,      6.942,    2.847089e-03
 364,     5.0666,      7.025,    2.041369e-03
 365,     5.0468,     14.700,    5.264697e-03
 366,     5.0381,     14.700,    3.316897e-03
 367,     5.0190,     14.700,    4.244569e-03
 368,     5.0003,     14.700,    3.244414e-03
 369,     4.9882,     14.700,    3.362110e-03
 370,     4.9739,     14.700,    4.822436e-03
 371,     4.9602,     14.700,    4.051247e-03
 372,     4.9520,     11.990,    2.925056e-03
 373,     4.9444,      3.581,    1.145718e-03
 374,     4.9380,      4.655,    1.584709e-03
 375,     4.9310,     10.977,    2.642281e-03
 376,     4.9257,      5.644,    1.377424e-03
 377,     4.9186,     10.110,    2.677766e-03
 378,     4.9090,     14.700,    4.126596e-03
 379,     4.8996,      5.307,    1.755697e-03
 380,     4.8944,      5.056,    1.555693e-03
 381,     4.8881,      7.083,    2.343530e-03
 382,     4.8788,     14.700,    3.974272e-03
 383,     4.8708,      9.262,    2.984642e-03
 384,     4.8571,     14.700,    2.429018e-02
 385,     4.8451,     14.700,    2.601285e-02
 386,     4.8328,     14.700,    2.594523e-02
 387,     4.8220,     14.700,    2.402726e-02
 388,     4.8118,     14.700,    2.236973e-02
 389,     4.7990,     14.700,    8.406375e-02
 390,     4.7937,     14.700,    9.341446e-02
 391,     4.7877,     14.700,    1.142611e-01
 392,     4.7806,     14.700,    1.599141e-01
 393,     4.7665,     14.700,    1.667826e-01
 394,     4.7552,     14.700,    1.620817e-01
 395,     4.7440,     14.700,    1.623607e-01
 396,     4.7326,     14.700,    1.638032e-01
 397,     4.7211,     14.700,    1.779846e-01
 398,     4.7129,     14.700,    3.786283e-03
 399,     4.7023,     14.700,    4.036576e-03
 400,     4.6885,     14.700,    3.815890e-03
 401,     4.6801,     14.700,    4.078027e-03
 402,     4.6738,      5.416,    1.231892e-03
 403,     4.6667,      5.969,    2.002010e-03
 404,     4.6544,     14.700,    3.174691e-03
 405,     4.6473,     13.965,    2.870101e-03
 406,     4.6405,     14.700,    4.954449e-03
 407,     4.6300,      5.529,    1.701131e-03
 408,     4.6232,      9.395,    1.523739e-03
 409,     4.6164,      6.219,    1.571151e-03
 410,     4.6101,      6.618,    2.057444e-03
 411,     4.6044,      6.271,    1.330573e-03
 412,     4.5925,     14.700,    4.286725e-03
 413,     4.5732,     14.700,    5.298888e-03
 414,     4.5632,     14.700,    5.490988e-03
 415,     4.5518,     14.700,    4.571366e-03
 416,     4.5370,     14.700,    4.139296e-03
 417,     4.5259,     14.700,    3.298555e-03
 418,     4.5177,      8.620,    1.950911e-03
 419,     4.5116,      8.375,    1.285725e-03
 420,     4.5026,     14.700,    3.098971e-03
 421,     4.4886,     14.700,    4.124614e-03
 422,     4.4754,     14.700,    3.191756e-03
 423,     4.4647,      7.166,    1.689287e-03
 424,     4.4578,     11.057,    2.211542e-03
 425,     4.4515,      7.815,    1.948800e-03
 426,     4.4395,     14.700,    3.874222e-03
 427,     4.4250,     14.700,    3.796033e-03
 428,     4.4160,      5.253,    1.117481e-03
 429,     4.4080,     12.425,    3.335312e-03
 430,     4.4027,      4.371,    8.408036e-04
 431,     4.3953,     11.350,    3.796831e-03
 432,     4.3894,      7.440,    1.590694e-03
 433,     4.3869,      2.322,    9.740024e-04
