index,   freq_ppm,   decay_hz, amplitude
   1,     9.0250,     14.700,    3.540457e-03
   2,     9.0137,     14.700,    2.729376e-03
   3,     9.0010,     14.700,    3.001184e-03
   4,     8.9927,     14.700,    2.944458e-03
   5,     8.9794,     14.700,    1.864132e-03
   6,     8.9657,     14.700,    3.269544e-03
   7,     8.9513,     14.700,    3.958763e-03
   8,     8.9194,     14.700,    2.917512e-03
   9,     8.9038,     14.700,    3.970442e-03
  10,     8.8886,     14.700,    4.310443e-03
  11,     8.8753,     14.700,    1.922906e-03
  12,     8.8650,     14.700,    2.333722e-03
  13,     8.8520,     14.700,    3.472709e-03
  14,     8.8364,     14.700,    2.111910e-03
  15,     8.8265,      6.138,    1.017231e-03
  16,     8.8194,     14.700,    2.359705e-03
  17,     8.8114,     14.700,    3.619527e-03
  18,     8.7934,     14.700,    2.883929e-03
  19,     8.7802,     14.700,    3.470569e-03
  20,     8.7688,     14.700,    2.638088e-03
  21,     8.7536,     14.700,    1.338873e-03
  22,     8.7458,      6.310,    9.094168e-04
  23,     8.7333,     14.700,    3.145390e-03
  24,     8.7215,      8.857,    1.952695e-03
  25,     8.7140,      7.150,    1.316709e-03
  26,     8.7092,      2.637,    4.068066e-04
  27,     8.7033,     14.700,    3.926852e-03
  28,     8.6939,     13.461,    3.189551e-03
  29,     8.6785,     14.700,    1.975101e-03
  30,     8.6681,     14.700,    3.158065e-03
  31,     8.6543,     14.700,    2.307249e-03
  32,     8.6421,     14.700,    3.798149e-03
  33,     8.6272,     14.700,    2.990942e-03
  34,     8.6014,     14.700,    4.558745e-03
  35,     8.5896,     14.700,    3.814523e-03
  36,     8.5778,     14.700,    3.231526e-03
  37,     8.5639,     14.700,    7.508784e-03
  38,     8.5539,     12.381,    2.391931e-03
  39,     8.5458,     14.700,    2.646558e-03
  40,     8.5384,      6.894,    1.029563e-03
  41,     8.5333,     13.682,    2.210127e-03
  42,     8.5270,      5.693,    1.107203e-03
  43,     8.5187,     12.473,    2.673166e-03
  44,     8.5092,     14.700,    1.750985e-03
  45,     8.4477,      5.710,    5.162202e-02
  46,     8.4459,      5.875,    1.930297e-01
  47,     8.4444,      8.285,    1.643769e-01
  48,     8.4408,     14.700,    4.187924e-02
  49,     8.4349,     14.700,    2.081556e-02
  50,     8.4273,     14.700,    1.365315e-02
  51,     8.4148,     14.700,    5.958566e-03
  52,     8.4052,     14.700,    4.671359e-03
  53,     8.3953,     14.700,    2.513018e-03
  54,     8.3886,     14.700,    2.305876e-03
  55,     8.3772,     14.700,    4.017905e-03
  56,     8.3681,     14.700,    4.316523e-03
  57,     8.3610,      6.431,    1.271123e-03
  58,     8.3514,     14.700,    1.852667e-03
  59,     8.3406,     13.722,    1.537121e-03
  60,     8.3361,      9.195,    1.821883e-03
  61,     8.3273,      4.453,    7.414013e-04
  62,     8.3213,     12.197,    5.981402e-03
  63,     8.3150,      8.242,    1.880402e-03
  64,     8.3012,     14.700,    5.205870e-03
  65,     8.2872,     14.700,    3.983503e-03
  66,     8.2688,     14.700,    4.888398e-03
  67,     8.2455,     14.700,    5.205395e-03
  68,     8.2296,     14.700,    4.545816e-03
  69,     8.2115,     14.700,    4.939753e-03
  70,     8.1966,     14.700,    3.795194e-03
  71,     8.1844,     14.700,    2.704161e-03
  72,     8.1754,     14.700,    3.764607e-03
  73,     8.1627,     14.700,    4.271418e-03
  74,     8.1518,     14.700,    2.763336e-03
  75,     8.1406,     14.700,    3.037452e-03
  76,     8.1260,     14.700,    3.500610e-03
  77,     8.1110,      8.500,    1.116111e-03
  78,     8.0994,     14.700,    3.495421e-03
  79,     8.0892,      7.307,    1.596473e-03
  80,     8.0834,     14.700,    2.753716e-03
  81,     8.0743,      2.342,    3.741640e-04
  82,     8.0694,     12.166,    2.382908e-03
  83,     8.0595,     12.738,    2.261044e-03
  84,     8.0472,     14.700,    2.338292e-03
  85,     8.0388,      9.564,    1.170934e-03
  86,     8.0321,      8.229,    1.921352e-03
  87,     8.0264,     14.700,    3.043500e-03
  88,     8.0166,     14.700,    2.587603e-03
  89,     8.0098,     14.700,    2.165282e-03
  90,     7.9976,     14.700,    2.911467e-03
  91,     7.9833,     14.700,    5.000644e-03
  92,     7.9634,     14.700,    4.042767e-03
  93,     7.9448,     14.700,    3.349608e-03
  94,     7.9329,     14.700,    3.786881e-03
  95,     7.9207,     14.700,    3.768645e-03
  96,     7.8880,     14.700,    3.838688e-03
  97,     7.8644,     14.700,    6.128729e-03
  98,     7.8555,     14.700,    7.917663e-03
  99,     7.8364,     14.700,    4.290008e-03
 100,     7.8237,     14.700,    5.248405e-03
 101,     7.8078,     14.700,    5.497302e-03
 102,     7.7829,     14.700,    4.492742e-03
 103,     7.7645,     14.700,    4.912133e-03
 104,     7.7400,     14.700,    4.741804e-03
 105,     7.7289,     14.700,    3.350138e-03
 106,     7.7190,     14.700,    3.435347e-03
 107,     7.7084,     14.700,    2.370511e-03
 108,     7.6956,     14.700,    4.013311e-03
 109,     7.6844,     14.700,    3.386006e-03
 110,     7.6685,     14.700,    2.383606e-03
 111,     7.6592,     14.700,    2.876423e-03
 112,     7.6489,     14.700,    1.361649e-03
 113,     7.6312,     14.700,    2.658137e-03
 114,     7.6241,     14.700,    2.153392e-03
 115,     7.6092,     14.700,    2.452711e-03
 116,     7.5996,     11.449,    1.952782e-03
 117,     7.5890,     14.700,    1.513795e-03
 118,     7.5835,      4.620,    1.049582e-03
 119,     7.5780,      5.389,    8.001361e-04
 120,     7.5654,     14.700,    3.421827e-03
 121,     7.5539,     14.700,    2.961559e-03
 122,     7.5442,     14.700,    4.448622e-03
 123,     7.5275,     14.700,    3.905040e-03
 124,     7.4936,     14.700,    2.064214e-03
 125,     7.4821,     14.700,    3.021103e-03
 126,     7.4712,     14.700,    4.742187e-03
 127,     7.4558,     14.700,    4.097209e-03
 128,     7.4333,     14.700,    3.913702e-03
 129,     7.4225,     14.700,    2.306048e-03
 130,     7.3997,     14.700,    2.058675e-03
 131,     7.3905,     14.700,    1.959344e-03
 132,     7.3786,     14.700,    2.479054e-03
 133,     7.3698,     13.710,    2.298945e-03
 134,     7.3609,     14.700,    2.808718e-03
 135,     7.3464,     14.700,    3.558660e-03
 136,     7.3345,     14.700,    1.846886e-03
 137,     7.3212,     14.700,    1.423913e-03
 138,     7.3099,     14.700,    3.068014e-03
 139,     7.2957,     14.700,    3.301213e-03
 140,     7.2696,     14.700,    4.827280e-03
 141,     7.2544,     14.700,    2.773140e-03
 142,     7.2224,     14.700,    3.446311e-03
 143,     7.1973,     14.700,    3.816800e-03
 144,     7.1732,     14.700,    5.053422e-03
 145,     7.1571,     14.700,    3.508224e-03
 146,     7.1403,     14.700,    2.493617e-03
 147,     7.1329,     14.700,    2.927063e-03
 148,     7.1202,     14.700,    3.660927e-03
 149,     7.1009,     14.700,    3.190690e-03
 150,     7.0881,     14.700,    3.611639e-03
 151,     7.0795,     10.546,    5.812764e-03
 152,     7.0689,     14.700,    2.399168e-03
 153,     7.0581,     14.700,    3.156699e-03
 154,     7.0458,     14.700,    2.691162e-03
 155,     7.0345,     14.700,    4.757666e-03
 156,     7.0153,     14.700,    3.858509e-03
 157,     6.9992,     14.700,    4.870827e-03
 158,     6.9785,     14.700,    3.811390e-03
 159,     6.9613,     14.700,    3.828167e-03
 160,     6.9507,     14.700,    3.556479e-03
 161,     6.9390,     14.700,    4.365208e-03
 162,     6.9199,     14.700,    3.681892e-03
 163,     6.9017,     14.700,    2.943444e-03
 164,     6.8871,     14.700,    3.338490e-03
 165,     6.8777,      8.277,    1.878754e-03
 166,     6.8636,     14.700,    3.310658e-03
 167,     6.8525,      2.625,    4.870427e-04
 168,     6.8442,     14.700,    3.768355e-03
 169,     6.8215,     14.700,    5.480830e-03
 170,     6.7966,     14.700,    3.554372e-03
 171,     6.7864,     14.700,    3.554947e-03
 172,     6.7699,     14.700,    3.149873e-03
 173,     6.7607,     14.700,    3.566355e-03
 174,     6.7480,     14.700,    3.126275e-03
 175,     6.7384,     14.700,    4.527482e-03
 176,     6.7190,     14.700,    4.495325e-03
 177,     6.6985,     14.700,    4.306072e-03
 178,     6.6687,     14.700,    4.117089e-03
 179,     6.6339,     14.700,    4.090563e-03
 180,     6.6100,     14.700,    4.018339e-03
 181,     6.5872,     14.700,    3.833967e-03
 182,     6.5657,      6.208,    1.364826e-03
 183,     6.5599,     14.700,    2.825109e-03
 184,     6.5479,     14.700,    3.781651e-03
 185,     6.5385,      4.082,    8.673781e-04
 186,     6.5317,     14.700,    1.742161e-03
 187,     6.5195,      3.713,    5.161761e-04
 188,     6.5131,      9.691,    6.997805e-04
 189,     6.5074,     11.797,    1.717247e-02
 190,     6.5014,      0.860,    3.402200e-04
 191,     6.4806,     14.700,    2.184334e-03
 192,     6.4739,      9.976,    1.394523e-03
 193,     6.4665,     10.196,    1.647649e-03
 194,     6.4542,     14.700,    2.576997e-03
 195,     6.4422,     14.700,    1.685859e-03
 196,     6.4310,     14.700,    2.943531e-03
 197,     6.4095,     14.700,    3.791638e-03
 198,     6.3889,     14.700,    2.472755e-03
 199,     6.3705,     14.700,    3.483838e-03
 200,     6.3626,     14.700,    4.271537e-03
 201,     6.3513,     14.700,    1.758780e-03
 202,     6.3374,     14.700,    3.400118e-03
 203,     6.2759,     14.700,    7.613753e-03
 204,     6.1636,     14.700,    2.766515e-03
 205,     6.1525,     14.700,    3.256972e-03
 206,     6.1409,     13.439,    2.174446e-03
 207,     6.1338,     14.700,    2.865892e-03
 208,     6.1150,     14.700,    3.853101e-03
 209,     6.1028,      6.310,    8.085572e-04
 210,     6.0983,      8.220,    1.394935e-03
 211,     6.0946,      9.130,    1.365987e-03
 212,     6.0877,      7.130,    1.281023e-03
 213,     6.0829,      7.992,    1.479936e-03
 214,     6.0753,      7.828,    1.199310e-03
 215,     6.0679,     14.700,    1.848400e-03
 216,     6.0579,      8.272,    1.769904e-03
 217,     6.0486,     14.700,    3.816490e-03
 218,     6.0346,     14.700,    2.233352e-03
 219,     6.0153,     14.700,    3.648401e-03
 220,     5.9960,     14.700,    4.716497e-03
 221,     5.9698,     14.700,    3.476521e-03
 222,     5.9512,     14.700,    4.813808e-03
 223,     5.8954,     14.700,    4.750987e-03
 224,     5.8621,     14.700,    3.745764e-03
 225,     5.8280,     14.700,    3.714835e-03
 226,     5.8034,     14.700,    2.246222e-03
 227,     5.7962,      8.407,    1.704890e-03
 228,     5.7898,     12.035,    2.066537e-03
 229,     5.7830,      5.600,    1.050813e-03
 230,     5.7746,     14.700,    3.878854e-03
 231,     5.7552,     14.700,    3.752225e-03
 232,     5.7457,     14.700,    2.330632e-03
 233,     5.7364,      8.137,    2.130028e-03
 234,     5.7258,     14.700,    2.472006e-03
 235,     5.7143,     14.700,    4.193129e-03
 236,     5.6984,     14.700,    3.884722e-03
 237,     5.6884,     11.930,    2.227389e-03
 238,     5.6816,      2.794,    6.207509e-04
 239,     5.6766,      6.362,    9.753138e-04
 240,     5.6707,      8.879,    1.810605e-03
 241,     5.6647,     12.878,    2.389240e-03
 242,     5.6573,      5.370,    8.455330e-04
 243,     5.6493,      8.887,    1.635786e-03
 244,     5.6403,     14.700,    2.048725e-03
 245,     5.6310,     14.700,    3.284756e-03
 246,     5.6203,     14.700,    2.335232e-03
 247,     5.6110,      9.602,    8.994351e-04
 248,     5.6084,      2.295,    5.631286e-04
 249,     5.6028,      6.286,    1.515216e-03
 250,     5.5991,      6.563,    8.393868e-04
 251,     5.5928,     10.940,    2.522139e-03
 252,     5.5856,      8.020,    1.843479e-03
 253,     5.5768,     14.700,    3.067155e-03
 254,     5.5700,     14.700,    3.854891e-03
 255,     5.5603,     14.700,    2.705358e-03
 256,     5.5472,     13.257,    3.100605e-03
 257,     5.5372,     14.700,    5.245258e-03
 258,     5.5226,     14.700,    3.241917e-03
 259,     5.5077,     14.700,    4.519512e-03
 260,     5.4903,     14.700,    6.501394e-03
 261,     5.4632,     14.700,    5.148739e-03
 262,     5.4413,     14.700,    3.508363e-03
 263,     5.4093,      4.021,    1.648079e-03
 264,     5.4043,      2.956,    3.834890e-04
 265,     5.3951,     13.707,    3.134958e-03
 266,     5.3851,     14.700,    2.126253e-03
 267,     5.3728,     14.700,    3.896910e-03
 268,     5.3603,     14.700,    2.084491e-03
 269,     5.3472,     14.700,    4.154787e-03
 270,     5.3357,     14.700,    1.799910e-03
 271,     5.3227,     14.700,    1.958708e-03
 272,     5.3072,     14.700,    1.807075e-03
 273,     5.3004,     14.700,    2.007936e-03
 274,     5.2846,     14.700,    2.851564e-03
 275,     5.2694,     14.700,    3.476884e-03
 276,     5.2556,     14.700,    4.095948e-03
 277,     5.2424,     14.700,    3.328510e-03
 278,     5.2099,     14.700,    3.374866e-03
 279,     5.1944,     14.700,    5.030151e-03
 280,     5.1850,     14.700,    4.071873e-03
 281,     5.1664,     14.700,    4.670194e-03
 282,     5.1477,     14.700,    4.255512e-03
 283,     5.1284,     14.700,    3.560045e-03
 284,     5.1078,     14.700,    3.860249e-03
 285,     5.0730,     14.700,    4.537179e-03
 286,     5.0682,     14.700,    2.758177e-03
 287,     5.0555,     14.700,    1.674940e-03
 288,     5.0454,     14.700,    2.928677e-03
 289,     5.0311,     14.700,    2.606174e-03
 290,     5.0202,      5.661,    1.002724e-03
 291,     5.0127,     14.700,    2.898772e-03
 292,     5.0089,     14.700,    4.482191e-03
 293,     4.9890,     14.700,    3.857211e-03
 294,     4.9755,     14.700,    4.717217e-03
 295,     4.9489,     14.700,    3.910503e-03
 296,     4.9282,     14.700,    4.120702e-03
 297,     4.8972,     14.700,    3.577207e-03
 298,     4.8832,     14.700,    3.982028e-03
 299,     4.8647,     14.700,    4.636379e-02
 300,     4.8490,     14.700,    4.307942e-02
 301,     4.8343,     14.700,    4.057209e-02
 302,     4.8190,     14.700,    4.172363e-02
 303,     4.8038,     14.700,    3.972980e-02
 304,     4.7909,     14.700,    4.752747e-02
 305,     4.7771,     14.700,    4.221194e-02
 306,     4.7546,     14.700,    5.534815e-02
 307,     4.7332,     14.700,    4.969732e-02
 308,     4.7096,     14.700,    4.766742e-02
 309,     4.6809,     14.700,    4.786424e-02
 310,     4.6611,     14.700,    4.649775e-02
 311,     4.6431,     14.700,    4.731956e-02
 312,     4.6262,     14.700,    3.778244e-03
 313,     4.6124,     14.700,    2.539621e-03
 314,     4.6008,     14.700,    3.320563e-03
 315,     4.5879,     14.700,    2.440022e-03
 316,     4.5818,      2.015,    5.220899e-04
 317,     4.5690,     14.700,    3.560542e-03
 318,     4.5519,     14.700,    2.384566e-03
 319,     4.5440,     13.052,    3.240762e-03
 320,     4.5389,     14.700,    1.981403e-03
 321,     4.5318,     14.700,    2.447746e-03
 322,     4.5273,      9.940,    1.879320e-03
 323,     4.5163,     14.700,    3.097732e-03
 324,     4.4995,     14.700,    2.377079e-03
 325,     4.4865,     14.700,    3.352444e-03
 326,     4.4674,     14.700,    4.184601e-03
 327,     4.4430,     14.700,    2.350611e-03
 328,     4.4208,     14.700,    4.121757e-03
 329,     4.4038,     14.700,    4.116086e-03
 330,     4.3954,      6.540,    1.445406e-03
 331,     4.3911,      2.128,    4.799135e-04
 332,     4.3840,      4.091,    2.600141e-04
 333,     4.3760,     14.700,    3.102364e-03
 334,     4.3669,     13.964,    2.597160e-03
 335,     4.3589,      8.596,    1.790570e-03
 336,     4.3533,      5.268,    1.220811e-03
 337,     4.3464,     13.577,    1.831333e-03
 338,     4.3408,     13.156,    3.012203e-03
 339,     4.3242,     14.700,    3.447266e-03
 340,     4.3060,     14.700,    2.279840e-03
 341,     4.2968,     14.700,    2.160211e-03
 342,     4.2897,     14.700,    2.522372e-03
 343,     4.2765,     14.700,    2.413690e-03
 344,     4.2615,     14.700,    1.875405e-03
 345,     4.2519,      6.108,    1.306243e-03
 346,     4.2359,     14.700,    2.807458e-03
 347,     4.2149,     14.700,    2.514169e-03
 348,     4.2071,     14.700,    2.477562e-03
 349,     4.1992,     11.978,    4.034584e-03
 350,     4.1909,     14.700,    2.221351e-03
 351,     4.1703,     14.700,    2.778851e-03
 352,     4.1581,     14.700,    3.231460e-03
 353,     4.1406,     14.700,    2.807289e-03
 354,     4.1190,     14.700,    2.423540e-03
 355,     4.1118,     14.700,    3.160538e-03
 356,     4.1021,     14.700,    4.850463e-03
 357,     4.0944,     14.700,    4.756066e-03
 358,     4.0631,      9.941,    4.699967e-03
 359,     4.0593,     12.199,    9.107035e-03
 360,     4.0554,     13.944,    2.065575e-02
 361,     4.0505,     14.700,    2.423976e-02
 362,     4.0451,     14.700,    1.372346e-02
 363,     4.0235,     14.700,    2.942282e-03
 364,     4.0143,     14.700,    3.406980e-03
 365,     4.0003,     14.700,    4.066390e-03
 366,     3.9903,     14.700,    3.130712e-03
 367,     3.9766,     14.700,    1.183704e-03
 368,     3.9660,     14.700,    2.992641e-03
 369,     3.9544,     13.166,    1.108871e-02
 370,     3.9441,      4.440,    6.779659e-04
 371,     3.9356,     14.700,    2.996605e-03
 372,     3.9258,     14.700,    3.039503e-03
 373,     3.9173,     14.700,    2.763486e-03
 374,     3.9045,     14.700,    2.725635e-03
 375,     3.8889,     14.700,    3.609406e-03
 376,     3.8701,     14.700,    3.671117e-03
 377,     3.8569,     14.700,    2.938897e-03
 378,     3.8438,     14.700,    1.661607e-03
 379,     3.8287,     14.700,    3.696282e-03
 380,     3.8225,     11.720,    3.626214e-03
 381,     3.8175,      9.538,    1.753261e-03
 382,     3.8109,     14.700,    4.841960e-03
 383,     3.8052,     14.700,    3.566898e-03
 384,     3.8001,     14.700,    3.149939e-03
 385,     3.7879,     14.700,    1.687156e-03
 386,     3.7757,     10.229,    2.562244e-03
 387,     3.7698,      5.159,    6.275597e-04
 388,     3.7644,     10.290,    2.400056e-03
 389,     3.7601,      4.054,    9.558846e-04
 390,     3.7466,      8.643,    1.351923e-03
 391,     3.7407,      1.040,    4.131666e-04
 392,     3.7344,     14.700,    3.836306e-03
 393,     3.7278,     11.349,    4.557701e-03
 394,     3.7202,     14.700,    7.320210e-03
 395,     3.7134,      6.016,    1.576113e-03
 396,     3.7090,      7.005,    1.902688e-03
 397,     3.7045,     10.143,    4.201284e-03
 398,     3.6898,     14.700,    3.517551e-03
 399,     3.6790,     14.700,    4.014005e-03
 400,     3.6674,     14.700,    2.460304e-03
 401,     3.6573,      9.143,    4.931116e-03
 402,     3.6499,     14.700,    3.688287e-03
 403,     3.6447,     11.689,    3.622852e-03
 404,     3.6380,      9.132,    3.058913e-03
 405,     3.6351,     10.560,    4.212445e-03
 406,     3.6299,     12.770,    6.718968e-03
 407,     3.6150,      8.063,    1.101575e-03
 408,     3.6041,     14.700,    3.924123e-03
 409,     3.5922,     14.700,    3.041901e-03
 410,     3.5808,     14.700,    2.229795e-03
 411,     3.5610,      9.469,    4.312828e-03
 412,     3.5530,     14.700,    5.031489e-03
 413,     3.5459,     10.508,    4.157167e-03
 414,     3.5376,     14.700,    4.313595e-03
 415,     3.5171,     13.337,    2.255409e-02
 416,     3.5137,      6.140,    5.917716e-03
 417,     3.5114,      7.558,    1.067017e-02
 418,     3.5092,     10.935,    1.698992e-02
 419,     3.5046,     13.553,    2.331039e-02
 420,     3.4792,      8.720,    1.221732e-03
 421,     3.4589,     14.700,    2.072329e-03
 422,     3.4482,     14.700,    3.166008e-03
 423,     3.4380,     14.700,    2.681570e-03
 424,     3.4184,     14.700,    3.341224e-03
 425,     3.4096,     14.700,    3.472284e-03
 426,     3.3984,     14.700,    2.377956e-03
 427,     3.3839,     14.700,    3.733244e-03
 428,     3.3758,     14.700,    3.368672e-03
 429,     3.3623,     14.700,    6.357088e-03
 430,     3.3556,     14.700,    2.425146e-03
 431,     3.3446,     14.700,    1.100550e-02
 432,     3.3324,     12.195,    2.052888e-03
 433,     3.3189,      5.530,    1.003865e-03
