index,   freq_ppm,   decay_hz, amplitude
   1,     9.0711,     14.700,    3.453330e-03
   2,     9.0594,     14.700,    3.275535e-03
   3,     9.0413,     14.700,    3.598984e-03
   4,     9.0143,     14.700,    3.305267e-03
   5,     9.0044,     14.700,    3.639201e-03
   6,     8.9871,     14.700,    4.416074e-03
   7,     8.9657,      6.607,    1.105231e-03
   8,     8.9610,      2.277,    5.033195e-04
   9,     8.9579,      6.527,    9.328913e-04
  10,     8.9539,      9.711,    1.436829e-03
  11,     8.9433,     14.279,    1.993916e-03
  12,     8.9343,     14.700,    3.820400e-03
  13,     8.9223,     14.700,    3.118009e-03
  14,     8.9044,     14.700,    2.862867e-03
  15,     8.8881,     14.700,    2.750891e-03
  16,     8.8579,     14.700,    2.739897e-03
  17,     8.8343,     14.700,    3.135625e-03
  18,     8.8080,     14.700,    4.849940e-03
  19,     8.7881,     14.700,    3.608418e-03
  20,     8.7785,     14.700,    3.596301e-03
  21,     8.7669,     14.700,    5.052812e-03
  22,     8.7574,     14.700,    3.496806e-03
  23,     8.7484,     14.700,    3.275285e-03
  24,     8.7417,     11.465,    2.237261e-03
  25,     8.7294,     14.700,    2.897666e-03
  26,     8.7209,     14.700,    3.377465e-03
  27,     8.7042,     14.700,    4.297419e-03
  28,     8.6893,     14.700,    3.327106e-03
  29,     8.6773,     14.700,    4.435339e-03
  30,     8.6630,     14.700,    4.072802e-03
  31,     8.6557,      8.243,    3.575504e-04
  32,     8.6485,     12.603,    2.605606e-03
  33,     8.6369,     14.700,    3.031505e-03
  34,     8.6251,     13.165,    1.627796e-03
  35,     8.6143,     10.927,    1.626618e-03
  36,     8.6053,     14.700,    3.994903e-03
  37,     8.5947,     14.700,    3.620005e-03
  38,     8.5850,     14.700,    2.797928e-03
  39,     8.5644,     14.700,    5.192368e-03
  40,     8.5490,     14.700,    3.840155e-03
  41,     8.5378,     14.700,    3.716115e-03
  42,     8.5226,     14.700,    3.553502e-03
  43,     8.5108,     14.700,    2.272744e-03
  44,     8.4958,     14.700,    2.902902e-03
  45,     8.4636,     14.700,    3.193741e-03
  46,     8.4464,      7.243,    1.025136e-01
  47,     8.4450,      6.462,    8.135458e-02
  48,     8.4432,     13.507,    5.324841e-02
  49,     8.4363,     12.595,    1.216103e-02
  50,     8.4260,     12.082,    7.617127e-03
  51,     8.4113,     12.314,    5.048590e-03
  52,     8.3992,     14.072,    6.703968e-03
  53,     8.3665,     14.700,    3.443697e-03
  54,     8.3568,     14.700,    2.783054e-03
  55,     8.3351,     14.700,    3.508604e-03
  56,     8.3211,     14.700,    3.947646e-03
  57,     8.3108,     14.700,    2.094456e-03
  58,     8.2999,     14.700,    1.811493e-03
  59,     8.2842,     14.700,    1.807677e-03
  60,     8.2745,     14.700,    2.864036e-03
  61,     8.2582,     14.700,    3.827326e-03
  62,     8.2485,     14.700,    2.696649e-03
  63,     8.2337,     14.700,    2.968926e-03
  64,     8.2141,     14.700,    3.808560e-03
  65,     8.1947,     14.700,    4.694398e-03
  66,     8.1677,     14.700,    3.784771e-03
  67,     8.1595,     14.700,    2.852221e-03
  68,     8.1514,     14.700,    3.828529e-03
  69,     8.1405,     14.700,    2.864345e-03
  70,     8.1317,     14.700,    2.747570e-03
  71,     8.1264,     14.700,    3.329688e-03
  72,     8.1178,      7.871,    8.095587e-04
  73,     8.1100,     12.360,    2.046491e-03
  74,     8.1027,      1.010,    3.460966e-04
  75,     8.0943,      9.642,    8.352290e-04
  76,     8.0882,     14.700,    2.051176e-03
  77,     8.0806,      9.892,    1.715019e-03
  78,     8.0737,     13.650,    2.148270e-03
  79,     8.0603,     14.700,    3.062839e-03
  80,     8.0454,     14.700,    2.042434e-03
  81,     8.0296,     14.700,    1.763391e-03
  82,     8.0184,     14.700,    1.695646e-03
  83,     8.0048,     13.487,    2.293227e-03
  84,     7.9906,     14.700,    1.503886e-03
  85,     7.9840,      4.729,    8.690354e-04
  86,     7.9729,     14.700,    3.173728e-03
  87,     7.9651,     14.700,    2.187904e-03
  88,     7.9516,     14.700,    2.417220e-03
  89,     7.9430,     14.700,    2.409824e-03
  90,     7.9310,     14.700,    2.933364e-03
  91,     7.9199,     14.700,    2.748447e-03
  92,     7.9086,     14.700,    2.246193e-03
  93,     7.8917,     13.869,    1.793230e-03
  94,     7.8850,     14.700,    2.154380e-03
  95,     7.8806,      0.242,    2.261253e-04
  96,     7.8750,     14.700,    2.506635e-03
  97,     7.8645,     14.700,    4.608081e-03
  98,     7.8556,     14.700,    4.506378e-03
  99,     7.8468,     14.700,    1.883446e-03
 100,     7.8337,     14.700,    1.748875e-03
 101,     7.8268,     14.700,    2.701568e-03
 102,     7.8084,     14.700,    2.616396e-03
 103,     7.7978,     13.274,    2.559131e-03
 104,     7.7877,      4.879,    6.674911e-04
 105,     7.7804,     14.700,    2.157988e-03
 106,     7.7707,     14.700,    2.111296e-03
 107,     7.7624,     14.700,    2.547390e-03
 108,     7.7495,     14.700,    3.015076e-03
 109,     7.7425,     12.673,    6.997507e-04
 110,     7.7355,     14.700,    2.547163e-03
 111,     7.7236,     14.297,    2.470138e-03
 112,     7.7174,     11.402,    2.866729e-03
 113,     7.7029,     14.700,    2.951622e-03
 114,     7.6904,     14.700,    3.775051e-03
 115,     7.6743,     14.700,    2.837852e-03
 116,     7.6669,     14.700,    2.933953e-03
 117,     7.6480,     14.700,    2.521729e-03
 118,     7.6304,     14.700,    4.104652e-03
 119,     7.6085,     14.700,    3.246347e-03
 120,     7.5922,     14.700,    3.229674e-03
 121,     7.5774,     14.700,    1.837342e-03
 122,     7.5575,     14.700,    2.153048e-03
 123,     7.5457,     14.700,    2.630449e-03
 124,     7.5352,     14.700,    3.746138e-03
 125,     7.5227,     14.700,    3.302166e-03
 126,     7.5149,      9.892,    1.648761e-03
 127,     7.5045,     14.700,    2.134795e-03
 128,     7.4972,      7.073,    1.098772e-03
 129,     7.4921,      9.643,    2.276187e-03
 130,     7.4822,      8.357,    1.831749e-03
 131,     7.4756,     11.283,    2.735506e-03
 132,     7.4734,     14.700,    4.992517e-03
 133,     7.4635,     14.700,    2.590768e-03
 134,     7.4503,     14.700,    1.918925e-03
 135,     7.4400,     14.700,    1.707625e-03
 136,     7.4323,     14.700,    1.541393e-03
 137,     7.4240,      5.471,    7.527588e-04
 138,     7.4192,     14.700,    3.448742e-03
 139,     7.4088,     14.700,    4.108977e-03
 140,     7.3969,     14.700,    3.430749e-03
 141,     7.3835,     14.700,    4.276578e-03
 142,     7.3724,     14.700,    3.296970e-03
 143,     7.3629,     14.700,    3.640088e-03
 144,     7.3524,     14.700,    3.700743e-03
 145,     7.3267,     14.700,    3.759546e-03
 146,     7.3154,     14.700,    4.623205e-03
 147,     7.3004,     14.700,    4.691129e-03
 148,     7.2893,     14.700,    2.680967e-03
 149,     7.2766,     14.700,    5.592520e-03
 150,     7.2646,     14.700,    2.788980e-03
 151,     7.2550,     14.700,    2.846229e-03
 152,     7.2344,     14.700,    1.670911e-03
 153,     7.1899,     12.912,    4.855762e-02
 154,     7.1868,     12.498,    9.566797e-03
 155,     7.1797,     14.700,    6.340872e-02
 156,     7.1724,     14.700,    4.439826e-03
 157,     7.1569,     14.700,    2.082099e-03
 158,     7.1449,     14.700,    1.979802e-03
 159,     7.1226,     14.700,    2.385716e-03
 160,     7.1110,     14.700,    2.614044e-03
 161,     7.0976,     14.700,    1.754847e-03
 162,     7.0905,     14.700,    1.448144e-03
 163,     7.0785,     14.700,    5.819067e-03
 164,     7.0659,     14.700,    2.258423e-03
 165,     7.0479,     14.700,    2.183413e-03
 166,     7.0293,     14.700,    2.106571e-03
 167,     7.0125,     14.700,    3.229805e-03
 168,     6.9868,     14.700,    2.143960e-03
 169,     6.9714,     14.700,    1.870101e-03
 170,     6.9609,     14.700,    3.042198e-03
 171,     6.9505,     14.700,    1.989485e-03
 172,     6.9437,     14.700,    2.942522e-03
 173,     6.9227,     14.700,    1.077549e-03
 174,     6.8969,     13.221,    4.222599e-02
 175,     6.8939,      0.000,    2.476270e-04
 176,     6.8905,      4.149,    3.951729e-04
 177,     6.8869,     14.700,    4.424980e-02
 178,     6.8810,     13.904,    2.704873e-03
 179,     6.8713,     14.700,    3.097344e-03
 180,     6.8655,     14.396,    2.016985e-03
 181,     6.8573,     14.700,    2.342939e-03
 182,     6.8494,     14.700,    2.324776e-03
 183,     6.8427,     14.700,    2.022990e-03
 184,     6.8325,     14.700,    1.982845e-03
 185,     6.8152,     14.700,    3.971213e-03
 186,     6.7923,     14.700,    3.005386e-03
 187,     6.7811,     14.700,    3.224445e-03
 188,     6.7608,     14.700,    2.188378e-03
 189,     6.7501,     14.700,    2.193758e-03
 190,     6.7349,     14.700,    1.801544e-03
 191,     6.7279,     14.700,    1.751117e-03
 192,     6.7170,     14.700,    1.847973e-03
 193,     6.6928,     14.700,    1.202103e-03
 194,     6.6858,      9.602,    1.501229e-03
 195,     6.6806,      7.739,    1.185452e-03
 196,     6.6733,      0.000,    1.142720e-04
 197,     6.6700,     14.305,    2.625470e-03
 198,     6.6633,     14.700,    2.438355e-03
 199,     6.6558,      6.625,    8.040050e-04
 200,     6.6423,     14.700,    2.052366e-03
 201,     6.6324,     14.700,    2.114935e-03
 202,     6.6219,     14.700,    2.241303e-03
 203,     6.6101,     13.640,    2.505208e-03
 204,     6.6033,     13.802,    3.028590e-03
 205,     6.5959,     14.086,    1.302308e-03
 206,     6.5892,     14.400,    2.411606e-03
 207,     6.5847,      9.058,    2.027798e-03
 208,     6.5767,     10.091,    1.798789e-03
 209,     6.5647,     11.507,    2.644854e-03
 210,     6.5527,     14.700,    4.749237e-03
 211,     6.5415,     14.700,    3.103645e-03
 212,     6.5302,     14.700,    3.472073e-03
 213,     6.5114,     14.700,    2.512248e-03
 214,     6.5022,     14.700,    1.714180e-03
 215,     6.4933,     14.700,    2.925868e-03
 216,     6.4821,     14.700,    3.331763e-03
 217,     6.4738,     14.700,    2.930417e-03
 218,     6.4655,     14.700,    3.338832e-03
 219,     6.4541,     14.700,    3.515359e-03
 220,     6.4444,     14.700,    2.103786e-03
 221,     6.4338,     14.700,    4.806158e-03
 222,     6.4224,      8.423,    5.306627e-04
 223,     6.4181,     14.700,    3.187073e-03
 224,     6.4116,      6.020,    6.557328e-04
 225,     6.4050,      4.732,    9.688423e-04
 226,     6.3969,     14.089,    3.529323e-03
 227,     6.3885,      8.104,    1.879634e-03
 228,     6.3827,      8.259,    5.695955e-04
 229,     6.3772,     14.700,    2.622404e-03
 230,     6.3676,      5.179,    8.450416e-04
 231,     6.3630,     11.309,    4.837039e-03
 232,     6.3547,     14.700,    1.963342e-03
 233,     6.3459,      6.460,    1.100622e-03
 234,     6.3391,      6.424,    7.865340e-04
 235,     6.3313,     14.700,    7.980608e-04
 236,     6.3242,     11.804,    2.228544e-03
 237,     6.3114,     14.700,    2.523659e-03
 238,     6.2975,     14.700,    3.044372e-03
 239,     6.2875,     14.700,    2.072668e-03
 240,     6.2791,      5.988,    1.078690e-03
 241,     6.2659,     14.700,    2.189269e-03
 242,     6.2556,     14.700,    2.367987e-03
 243,     6.2396,     14.700,    4.424925e-03
 244,     6.2158,     14.700,    2.749548e-03
 245,     6.2020,     14.700,    3.676011e-03
 246,     6.1844,     14.700,    3.172154e-03
 247,     6.1731,     14.700,    2.468546e-03
 248,     6.1599,     14.700,    2.850286e-03
 249,     6.1515,     14.700,    2.252729e-03
 250,     6.1452,     14.700,    2.444862e-03
 251,     6.1385,     11.892,    1.950821e-03
 252,     6.1267,     14.700,    2.976856e-03
 253,     6.1171,      4.950,    8.604290e-04
 254,     6.0961,     14.700,    1.854916e-03
 255,     6.0847,     14.700,    2.751624e-03
 256,     6.0735,     14.700,    2.084558e-03
 257,     6.0643,     14.700,    2.724484e-03
 258,     6.0472,     14.700,    2.111706e-03
 259,     6.0388,     14.700,    2.703049e-03
 260,     6.0212,     14.700,    3.826153e-03
 261,     6.0106,     14.700,    3.836844e-03
 262,     5.9968,     14.700,    2.662155e-03
 263,     5.9873,     14.700,    2.865956e-03
 264,     5.9721,     14.700,    3.823542e-03
 265,     5.9611,     14.700,    3.449364e-03
 266,     5.9410,     14.700,    3.334872e-03
 267,     5.9247,     14.700,    2.753454e-03
 268,     5.9137,     14.700,    3.191047e-03
 269,     5.9015,     14.700,    3.054699e-03
 270,     5.8836,     14.700,    2.538023e-03
 271,     5.8742,     14.700,    2.972558e-03
 272,     5.8589,     14.700,    2.551291e-03
 273,     5.8487,     14.700,    2.615962e-03
 274,     5.8262,     14.700,    3.107367e-03
 275,     5.8145,     14.642,    2.401458e-03
 276,     5.8067,     13.734,    2.931459e-03
 277,     5.7895,     14.700,    1.745104e-03
 278,     5.7812,     14.700,    3.004488e-03
 279,     5.7702,     14.700,    2.468438e-03
 280,     5.7503,     14.700,    1.407478e-03
 281,     5.7416,     14.700,    1.936330e-03
 282,     5.7307,     14.700,    2.885688e-03
 283,     5.7179,     14.700,    1.609067e-03
 284,     5.7085,     14.700,    2.173543e-03
 285,     5.6977,     14.700,    3.341129e-03
 286,     5.6894,     14.700,    2.450300e-03
 287,     5.6782,     14.700,    3.189630e-03
 288,     5.6693,     13.297,    1.967633e-03
 289,     5.6595,     14.700,    2.446651e-03
 290,     5.6420,     14.700,    1.912294e-03
 291,     5.6262,     14.700,    2.605418e-03
 292,     5.6188,     14.700,    3.406464e-03
 293,     5.6075,      8.012,    1.513955e-03
 294,     5.5966,     14.700,    2.859744e-03
 295,     5.5924,      8.120,    7.547911e-04
 296,     5.5835,     14.700,    2.012210e-03
 297,     5.5774,      8.322,    1.754301e-03
 298,     5.5703,     10.149,    1.675958e-03
 299,     5.5615,      8.497,    1.065142e-03
 300,     5.5492,     14.700,    3.859508e-03
 301,     5.5375,     14.700,    2.745022e-03
 302,     5.5240,     14.700,    2.319336e-03
 303,     5.5103,     14.700,    2.637693e-03
 304,     5.4970,     14.700,    2.648115e-03
 305,     5.4891,      8.188,    1.586309e-03
 306,     5.4802,     14.400,    1.790199e-03
 307,     5.4698,     14.700,    3.120065e-03
 308,     5.4599,     14.700,    2.310830e-03
 309,     5.4497,     14.700,    1.648387e-03
 310,     5.4411,      2.566,    5.076326e-04
 311,     5.4372,      6.003,    4.763123e-04
 312,     5.4232,     14.700,    3.235032e-03
 313,     5.4111,     14.700,    1.877861e-03
 314,     5.4007,     14.700,    2.938391e-03
 315,     5.3908,     14.700,    5.549930e-03
 316,     5.3806,     14.700,    3.705527e-03
 317,     5.3630,     14.700,    3.832993e-03
 318,     5.3431,     14.700,    3.985200e-03
 319,     5.3297,     14.700,    3.299438e-03
 320,     5.3164,     14.700,    5.540174e-03
 321,     5.2966,     14.700,    4.167198e-03
 322,     5.2813,      8.759,    1.713988e-03
 323,     5.2678,     14.700,    2.617066e-03
 324,     5.2573,     14.700,    2.510375e-03
 325,     5.2502,     14.700,    2.093129e-03
 326,     5.2353,     14.700,    2.883654e-03
 327,     5.2162,     14.700,    3.066685e-03
 328,     5.2062,     14.700,    3.478935e-03
 329,     5.1955,     14.700,    2.836226e-03
 330,     5.1819,     14.700,    1.991928e-03
 331,     5.1727,     14.700,    5.042433e-03
 332,     5.1628,     14.700,    2.653094e-03
 333,     5.1501,     14.700,    3.459443e-03
 334,     5.1393,     14.700,    3.704465e-03
 335,     5.1272,     14.700,    3.196785e-03
 336,     5.1101,     14.700,    2.219515e-03
 337,     5.1005,     14.700,    2.590983e-03
 338,     5.0884,     14.700,    3.080823e-03
 339,     5.0749,     14.700,    3.165863e-03
 340,     5.0580,     14.700,    1.488948e-03
 341,     5.0500,     14.700,    2.172736e-03
 342,     5.0418,     14.700,    2.090121e-03
 343,     5.0256,     14.700,    2.200946e-03
 344,     5.0177,     14.700,    3.005898e-03
 345,     4.9998,     14.700,    2.803118e-03
 346,     4.9917,     14.700,    1.552441e-03
 347,     4.9866,      4.486,    1.053944e-03
 348,     4.9785,     14.700,    3.796279e-03
 349,     4.9686,      9.437,    1.775107e-03
 350,     4.9660,      0.565,    1.251643e-04
 351,     4.9596,      5.945,    9.955867e-04
 352,     4.9520,      9.282,    8.542156e-04
 353,     4.9483,      9.855,    1.294372e-03
 354,     4.9376,     14.700,    1.692999e-02
 355,     4.9119,     14.700,    1.587291e-02
 356,     4.8892,     14.700,    1.586269e-02
 357,     4.8691,     14.700,    1.446654e-02
 358,     4.8495,     14.700,    1.390953e-02
 359,     4.8206,     14.700,    1.406579e-02
 360,     4.7946,     14.700,    1.713951e-02
 361,     4.7898,     13.126,    8.754005e-03
 362,     4.7762,      5.290,    2.579547e-02
 363,     4.7683,     14.700,    1.366729e-02
 364,     4.7606,     14.700,    1.384490e-02
 365,     4.7537,     14.700,    1.418718e-02
 366,     4.7428,     13.657,    3.711032e-03
 367,     4.7355,      1.819,    6.006636e-04
 368,     4.7272,      8.733,    1.463740e-03
 369,     4.7201,     14.700,    1.678719e-03
 370,     4.7112,     14.700,    2.059584e-03
 371,     4.6996,     14.700,    3.022373e-03
 372,     4.6931,      3.895,    7.938733e-04
 373,     4.6831,      5.308,    1.292447e-03
 374,     4.6767,     14.700,    2.896335e-03
 375,     4.6604,     11.156,    1.857320e-03
 376,     4.6546,      9.998,    1.087769e-03
 377,     4.6476,     14.700,    2.399908e-03
 378,     4.6353,     14.700,    2.453619e-03
 379,     4.6270,     14.700,    3.271222e-03
 380,     4.6197,      7.859,    6.756946e-04
 381,     4.6112,     14.700,    1.583019e-03
 382,     4.6022,     14.700,    2.341084e-03
 383,     4.5871,     14.700,    2.068031e-03
 384,     4.5746,     14.700,    1.021714e-03
 385,     4.5634,      8.768,    1.948620e-03
 386,     4.5514,     14.700,    2.937470e-03
 387,     4.5420,     12.834,    3.024383e-03
 388,     4.5338,     14.700,    1.304296e-03
 389,     4.5266,     11.278,    1.326403e-03
 390,     4.5177,     13.298,    2.731466e-03
 391,     4.5058,     14.700,    2.757395e-03
 392,     4.4942,     14.700,    1.814962e-03
 393,     4.4802,     14.700,    3.198180e-03
 394,     4.4652,     14.700,    3.179505e-03
 395,     4.4507,     14.700,    3.359899e-03
 396,     4.4397,     14.700,    1.616785e-03
 397,     4.4322,     14.700,    1.846119e-03
 398,     4.4095,     14.700,    1.886090e-03
 399,     4.4004,      9.047,    1.682861e-03
 400,     4.3928,      6.189,    1.217785e-03
 401,     4.3799,     14.700,    3.625338e-03
 402,     4.3693,     14.700,    2.363354e-03
 403,     4.3548,     14.700,    2.932515e-03
 404,     4.3460,     14.700,    2.414098e-03
 405,     4.3342,     14.700,    2.692170e-03
 406,     4.3262,     14.700,    1.913354e-03
 407,     4.3194,     13.028,    2.681548e-03
 408,     4.3080,      8.574,    1.593767e-03
 409,     4.2997,     14.700,    3.317299e-03
 410,     4.2918,     14.700,    2.849202e-03
 411,     4.2768,     14.700,    1.733380e-03
 412,     4.2686,     14.700,    1.815667e-03
 413,     4.2499,     14.700,    4.142482e-03
 414,     4.2344,     14.700,    3.012960e-03
 415,     4.2242,     14.700,    1.948823e-03
 416,     4.2055,     14.700,    3.007810e-03
 417,     4.1964,     14.700,    3.881929e-03
 418,     4.1835,     14.700,    6.504286e-03
 419,     4.1740,     14.700,    4.513745e-03
 420,     4.1651,     14.700,    3.764889e-03
 421,     4.1570,     11.484,    2.313232e-03
 422,     4.1360,     14.700,    2.373410e-02
 423,     4.1313,     14.700,    2.459509e-02
 424,     4.1268,     14.700,    9.195261e-03
 425,     4.1087,     10.128,    2.778598e-02
 426,     4.1068,     10.832,    4.251537e-02
 427,     4.1030,     14.700,    1.233008e-01
 428,     4.0964,     14.700,    8.394742e-03
 429,     4.0511,     14.700,    1.408190e-02
 430,     4.0262,     10.949,    7.334191e-02
 431,     4.0244,     13.664,    1.355724e-01
 432,     4.0092,     14.700,    2.439932e-01
 433,     3.9905,     13.787,    1.238139e-01
