index,   freq_ppm,   decay_hz, amplitude
   1,     9.0736,     14.700,    7.909473e-03
   2,     9.0549,     14.700,    6.544244e-03
   3,     9.0360,     14.700,    6.622683e-03
   4,     9.0237,     14.700,    6.262241e-03
   5,     9.0121,     14.700,    6.309350e-03
   6,     8.9988,     14.700,    6.090295e-03
   7,     8.9828,     14.700,    7.101026e-03
   8,     8.9769,      3.570,    1.610355e-03
   9,     8.9719,     11.707,    4.472406e-03
  10,     8.9625,     14.700,    5.421020e-03
  11,     8.9545,      7.165,    2.918386e-03
  12,     8.9478,      9.464,    4.633079e-03
  13,     8.9379,      6.372,    3.045636e-03
  14,     8.9274,      9.059,    4.045729e-03
  15,     8.9217,      4.150,    1.406322e-03
  16,     8.9100,     14.700,    4.524637e-03
  17,     8.9009,      4.928,    1.991416e-03
  18,     8.8951,      5.465,    2.784709e-03
  19,     8.8876,     14.700,    3.643035e-03
  20,     8.8769,     14.700,    5.396528e-03
  21,     8.8663,     14.700,    3.577503e-03
  22,     8.8550,     14.700,    6.463152e-03
  23,     8.8441,     14.700,    3.156747e-03
  24,     8.8283,     14.700,    6.757507e-03
  25,     8.8161,     14.700,    6.058980e-03
  26,     8.7862,     14.700,    7.420385e-03
  27,     8.7654,     14.700,    7.311382e-03
  28,     8.7455,     14.700,    7.815094e-03
  29,     8.7293,     14.700,    7.413056e-03
  30,     8.7030,     14.700,    7.033068e-03
  31,     8.6854,     14.700,    7.553333e-03
  32,     8.6684,     14.700,    5.861502e-03
  33,     8.6543,     14.700,    4.914070e-03
  34,     8.6293,     14.700,    7.232267e-03
  35,     8.6145,     14.700,    6.271854e-03
  36,     8.6024,     14.700,    6.091350e-03
  37,     8.5833,     14.700,    6.993472e-03
  38,     8.5737,     14.700,    4.989347e-03
  39,     8.5635,     14.700,    1.061433e-02
  40,     8.5525,     14.700,    6.699538e-03
  41,     8.5407,     14.700,    4.078970e-03
  42,     8.5311,     14.700,    5.574920e-03
  43,     8.5184,     14.700,    8.048318e-03
  44,     8.5006,     14.700,    6.818212e-03
  45,     8.4959,     14.700,    7.792918e-03
  46,     8.4477,      6.126,    5.488070e-02
  47,     8.4459,      6.160,    2.424386e-01
  48,     8.4445,      9.156,    2.297248e-01
  49,     8.4395,     14.700,    4.688811e-02
  50,     8.4344,     13.268,    1.887661e-02
  51,     8.4270,     14.700,    1.549547e-02
  52,     8.4176,     14.700,    1.142329e-02
  53,     8.4019,     14.700,    8.470182e-03
  54,     8.3835,     14.700,    7.472212e-03
  55,     8.3696,     14.700,    5.321147e-03
  56,     8.3562,     14.700,    4.559445e-03
  57,     8.3472,     14.700,    6.753948e-03
  58,     8.3288,     14.700,    4.580373e-03
  59,     8.3199,     14.700,    9.061079e-03
  60,     8.2986,     14.700,    5.988978e-03
  61,     8.2849,     14.700,    6.344832e-03
  62,     8.2668,     14.700,    4.704015e-03
  63,     8.2472,     14.700,    5.604107e-03
  64,     8.2299,     14.700,    6.036571e-03
  65,     8.2113,     14.700,    7.607809e-03
  66,     8.2042,      8.856,    4.085600e-03
  67,     8.1970,      8.489,    3.508912e-03
  68,     8.1878,      6.330,    2.745610e-03
  69,     8.1827,      5.492,    2.371529e-03
  70,     8.1730,     14.700,    7.563448e-03
  71,     8.1611,     14.700,    5.017502e-03
  72,     8.1531,      5.506,    2.080469e-03
  73,     8.1471,     14.700,    5.238839e-03
  74,     8.1347,     14.700,    6.478817e-03
  75,     8.1266,      4.177,    1.959038e-03
  76,     8.1208,      6.237,    2.083602e-03
  77,     8.1147,     14.700,    4.988469e-03
  78,     8.1038,      4.845,    2.029832e-03
  79,     8.0983,      4.042,    1.743146e-03
  80,     8.0935,      4.430,    2.357420e-03
  81,     8.0814,     14.700,    6.056687e-03
  82,     8.0666,     14.700,    5.866552e-03
  83,     8.0472,     14.700,    5.346613e-03
  84,     8.0276,     14.700,    3.754193e-03
  85,     8.0124,     14.700,    5.350397e-03
  86,     7.9999,     14.700,    5.903901e-03
  87,     7.9710,     14.700,    6.913533e-03
  88,     7.9334,     14.700,    5.485020e-03
  89,     7.9211,     14.700,    5.322570e-03
  90,     7.9061,     14.700,    4.705946e-03
  91,     7.8916,     14.700,    5.496050e-03
  92,     7.8687,     14.700,    7.957351e-03
  93,     7.8583,     14.700,    6.042945e-03
  94,     7.8488,     14.700,    5.053588e-03
  95,     7.8360,     14.700,    4.757358e-03
  96,     7.8259,     14.700,    5.880093e-03
  97,     7.8150,     14.700,    4.850764e-03
  98,     7.8064,      7.149,    2.748824e-03
  99,     7.7885,     14.700,    3.502363e-03
 100,     7.7791,      5.860,    2.136485e-03
 101,     7.7706,     14.700,    5.456205e-03
 102,     7.7613,     14.220,    4.578573e-03
 103,     7.7499,     14.700,    5.703875e-03
 104,     7.7426,      6.723,    2.489516e-03
 105,     7.7352,     14.700,    5.394265e-03
 106,     7.7181,     14.700,    5.991340e-03
 107,     7.7013,     14.700,    5.684535e-03
 108,     7.6858,     14.700,    4.351170e-03
 109,     7.6656,     14.700,    6.614724e-03
 110,     7.6518,     14.700,    6.623730e-03
 111,     7.6404,     14.700,    4.236042e-03
 112,     7.6316,      7.062,    2.563518e-03
 113,     7.6199,     14.700,    4.948565e-03
 114,     7.6070,     14.700,    3.004187e-03
 115,     7.5977,      5.244,    2.067320e-03
 116,     7.5923,     14.700,    5.062234e-03
 117,     7.5799,     14.700,    5.427401e-03
 118,     7.5728,      3.771,    2.028693e-03
 119,     7.5677,      5.374,    2.277591e-03
 120,     7.5549,     14.700,    5.875786e-03
 121,     7.5465,     14.700,    5.818314e-03
 122,     7.5336,     14.700,    4.446353e-03
 123,     7.5206,     14.700,    4.899188e-03
 124,     7.5011,     14.700,    5.049082e-03
 125,     7.4830,     14.700,    6.732744e-03
 126,     7.4713,     14.700,    7.137663e-03
 127,     7.4488,     14.700,    7.278352e-03
 128,     7.4374,     14.700,    3.923538e-03
 129,     7.4224,     14.700,    4.274736e-03
 130,     7.4135,      7.980,    3.620976e-03
 131,     7.4028,     14.700,    5.762227e-03
 132,     7.3869,     14.700,    7.303944e-03
 133,     7.3704,     14.700,    5.538680e-03
 134,     7.3565,     14.700,    6.644607e-03
 135,     7.3373,     14.700,    5.856212e-03
 136,     7.3192,     14.700,    5.034135e-03
 137,     7.3054,     14.700,    7.133516e-03
 138,     7.2849,     14.700,    6.243072e-03
 139,     7.2725,     14.700,    6.226914e-03
 140,     7.2614,     14.700,    5.729946e-03
 141,     7.2337,     14.700,    6.041373e-03
 142,     7.2136,     14.700,    5.864104e-03
 143,     7.1892,     14.700,    7.669235e-03
 144,     7.1552,     14.700,    6.427728e-03
 145,     7.1257,     14.700,    7.818923e-03
 146,     7.1031,     14.700,    7.312697e-03
 147,     7.0903,     14.700,    5.536917e-03
 148,     7.0778,     14.700,    8.784650e-03
 149,     7.0666,     14.700,    6.218614e-03
 150,     7.0574,     14.700,    3.304804e-03
 151,     7.0429,     14.700,    5.538825e-03
 152,     7.0344,     14.700,    5.789933e-03
 153,     7.0181,     14.700,    4.931329e-03
 154,     7.0105,     14.700,    4.785335e-03
 155,     6.9959,     14.700,    3.812940e-03
 156,     6.9853,      7.289,    2.631010e-03
 157,     6.9786,     14.700,    6.510264e-03
 158,     6.9581,     14.700,    6.007623e-03
 159,     6.9415,     14.700,    5.685177e-03
 160,     6.9252,     14.700,    5.515549e-03
 161,     6.9037,     14.700,    6.441217e-03
 162,     6.8956,     14.700,    4.701731e-03
 163,     6.8792,      4.532,    1.501078e-03
 164,     6.8729,     12.620,    4.112274e-03
 165,     6.8643,      7.326,    2.561580e-03
 166,     6.8586,      5.916,    1.761424e-03
 167,     6.8516,      5.764,    2.173594e-03
 168,     6.8451,     14.700,    4.532066e-03
 169,     6.8332,     14.700,    4.590622e-03
 170,     6.8226,     11.856,    4.000892e-03
 171,     6.8143,     14.700,    5.848047e-03
 172,     6.8031,     14.700,    6.424495e-03
 173,     6.7908,     14.700,    6.524894e-03
 174,     6.7760,     14.700,    7.276000e-03
 175,     6.7661,     14.700,    4.565875e-03
 176,     6.7568,      5.259,    3.180532e-03
 177,     6.7481,     14.700,    6.248499e-03
 178,     6.7365,     14.700,    6.963972e-03
 179,     6.7201,     14.700,    8.421064e-03
 180,     6.7025,     14.700,    7.105328e-03
 181,     6.6862,     14.700,    6.874891e-03
 182,     6.6753,     14.700,    7.095199e-03
 183,     6.6645,     14.700,    5.882685e-03
 184,     6.6504,     14.700,    6.809309e-03
 185,     6.6333,     14.700,    5.747180e-03
 186,     6.6259,     14.700,    4.334754e-03
 187,     6.6136,     14.700,    4.728243e-03
 188,     6.6046,     14.700,    4.812004e-03
 189,     6.5930,     14.700,    6.629690e-03
 190,     6.5811,     14.700,    6.581415e-03
 191,     6.5642,     14.700,    5.513298e-03
 192,     6.5538,     14.700,    5.953220e-03
 193,     6.5429,     14.700,    5.895689e-03
 194,     6.5267,     14.700,    5.489829e-03
 195,     6.5126,     14.700,    5.985767e-03
 196,     6.5038,     14.700,    4.786622e-03
 197,     6.4977,      5.599,    1.968664e-03
 198,     6.4911,      8.117,    3.810128e-03
 199,     6.4835,     14.700,    3.842253e-03
 200,     6.4705,     14.700,    5.321185e-03
 201,     6.4587,     11.692,    4.757869e-03
 202,     6.4486,      5.514,    1.664162e-03
 203,     6.4426,      4.532,    1.770102e-03
 204,     6.4373,      6.744,    2.860564e-03
 205,     6.4260,      5.659,    2.684990e-03
 206,     6.4195,     12.026,    4.499857e-03
 207,     6.4121,     11.616,    4.105282e-03
 208,     6.4041,     11.761,    5.490707e-03
 209,     6.3919,     14.700,    4.320664e-03
 210,     6.3817,     14.700,    7.127149e-03
 211,     6.3633,     14.700,    8.328852e-03
 212,     6.3532,     14.700,    6.787112e-03
 213,     6.3415,     14.700,    5.026169e-03
 214,     6.3308,     14.700,    6.429559e-03
 215,     6.3177,     14.700,    7.656259e-03
 216,     6.3098,     14.700,    5.228222e-03
 217,     6.2968,     14.700,    4.852328e-03
 218,     6.2831,     14.700,    3.952643e-03
 219,     6.2660,     14.700,    6.617818e-03
 220,     6.2478,     14.700,    3.981547e-03
 221,     6.2375,     14.700,    5.508177e-03
 222,     6.2228,     14.700,    4.950744e-03
 223,     6.2106,     14.700,    6.372607e-03
 224,     6.1927,     14.700,    5.717369e-03
 225,     6.1741,     14.700,    5.379170e-03
 226,     6.1586,     14.700,    4.193804e-03
 227,     6.1481,     14.700,    5.049781e-03
 228,     6.1294,     14.700,    5.163410e-03
 229,     6.1176,     14.700,    6.107603e-03
 230,     6.1052,     14.700,    5.853898e-03
 231,     6.0937,     14.700,    7.127639e-03
 232,     6.0703,     14.700,    8.578720e-03
 233,     6.0509,     14.700,    7.254669e-03
 234,     6.0271,     14.700,    7.678878e-03
 235,     6.0099,     14.700,    7.800193e-03
 236,     6.0033,      6.144,    2.014230e-03
 237,     5.9981,      5.276,    2.381349e-03
 238,     5.9914,      7.394,    2.556276e-03
 239,     5.9880,      6.032,    1.385856e-03
 240,     5.9818,      5.037,    2.297530e-03
 241,     5.9762,      6.127,    1.768701e-03
 242,     5.9672,     14.700,    4.627189e-03
 243,     5.9554,     14.700,    5.230364e-03
 244,     5.9452,      5.376,    1.946577e-03
 245,     5.9394,      5.828,    2.488460e-03
 246,     5.9283,     14.700,    5.105001e-03
 247,     5.9157,     14.700,    6.466030e-03
 248,     5.9022,     14.700,    4.265574e-03
 249,     5.8934,     14.700,    3.666941e-03
 250,     5.8850,     14.700,    4.270969e-03
 251,     5.8719,     14.700,    5.419514e-03
 252,     5.8625,     14.700,    3.711815e-03
 253,     5.8521,     14.700,    6.638698e-03
 254,     5.8403,     14.700,    3.194645e-03
 255,     5.8300,     14.700,    5.245718e-03
 256,     5.8201,     14.700,    6.589554e-03
 257,     5.8012,     14.700,    7.346448e-03
 258,     5.7722,     14.700,    7.763670e-03
 259,     5.7450,     14.700,    6.777812e-03
 260,     5.7300,     14.700,    5.918318e-03
 261,     5.7158,     14.700,    7.091114e-03
 262,     5.7007,     14.700,    7.377255e-03
 263,     5.6716,     14.700,    5.872259e-03
 264,     5.6609,      5.945,    3.299303e-03
 265,     5.6519,     14.700,    3.741570e-03
 266,     5.6455,      4.851,    2.391100e-03
 267,     5.6356,     14.700,    4.803685e-03
 268,     5.6251,      6.879,    2.990962e-03
 269,     5.6163,     14.700,    5.375856e-03
 270,     5.6103,     14.700,    5.410132e-03
 271,     5.5953,     14.700,    5.515185e-03
 272,     5.5800,     14.700,    4.827332e-03
 273,     5.5644,     14.700,    6.053733e-03
 274,     5.5514,     14.700,    5.009038e-03
 275,     5.5396,     14.700,    5.068712e-03
 276,     5.5283,     14.700,    5.228278e-03
 277,     5.5177,     14.700,    4.576497e-03
 278,     5.5042,     14.700,    5.380331e-03
 279,     5.4873,     14.700,    4.497961e-03
 280,     5.4690,     14.700,    4.719228e-03
 281,     5.4590,     14.700,    3.643404e-03
 282,     5.4515,     14.700,    3.888386e-03
 283,     5.4431,     14.700,    7.693134e-03
 284,     5.4332,     14.700,    8.628473e-03
 285,     5.4167,     14.700,    1.029921e-02
 286,     5.4017,     14.700,    8.756491e-03
 287,     5.3842,     14.700,    9.133982e-03
 288,     5.3688,     14.700,    8.479475e-03
 289,     5.3636,      4.642,    2.534724e-03
 290,     5.3575,     12.269,    6.107830e-03
 291,     5.3472,     14.700,    9.202090e-03
 292,     5.3370,     14.700,    6.900260e-03
 293,     5.3317,      5.604,    2.524644e-03
 294,     5.3264,      4.056,    2.054638e-03
 295,     5.3207,      8.358,    2.480214e-03
 296,     5.3138,     14.700,    4.866921e-03
 297,     5.3027,     14.700,    4.967445e-03
 298,     5.2952,      4.053,    2.543529e-03
 299,     5.2902,     14.700,    6.580369e-03
 300,     5.2755,     14.700,    6.614672e-03
 301,     5.2571,     14.700,    6.078421e-03
 302,     5.2419,     14.700,    5.959789e-03
 303,     5.2242,     14.700,    6.896497e-03
 304,     5.2108,     14.700,    6.753485e-03
 305,     5.1929,     14.700,    6.399228e-03
 306,     5.1729,     14.700,    1.431826e-02
 307,     5.1635,     14.700,    4.715564e-03
 308,     5.1470,     14.700,    3.381263e-03
 309,     5.1335,     14.700,    3.794871e-03
 310,     5.1242,     14.700,    4.093009e-03
 311,     5.1105,     14.700,    5.193178e-03
 312,     5.1008,     14.700,    5.361713e-03
 313,     5.0898,     14.700,    3.292061e-03
 314,     5.0767,     14.700,    5.505574e-03
 315,     5.0589,     14.700,    4.268687e-03
 316,     5.0360,     14.700,    4.733237e-03
 317,     5.0159,     14.700,    5.570698e-03
 318,     5.0042,     14.700,    6.100819e-03
 319,     4.9915,     14.700,    4.496181e-03
 320,     4.9799,     14.700,    5.958045e-03
 321,     4.9669,     14.700,    5.862567e-03
 322,     4.9560,     14.700,    4.251778e-03
 323,     4.9453,     14.700,    4.032234e-03
 324,     4.9339,     14.700,    6.254018e-03
 325,     4.9203,     14.700,    7.095045e-02
 326,     4.8983,     14.700,    6.872033e-02
 327,     4.8777,     14.700,    6.770051e-02
 328,     4.8572,     14.700,    6.616648e-02
 329,     4.8362,     14.700,    6.886494e-02
 330,     4.8146,     14.700,    7.239778e-02
 331,     4.7793,      4.498,    2.602477e-02
 332,     4.7722,     14.700,    7.563343e-02
 333,     4.7619,     14.700,    5.579253e-02
 334,     4.7526,     14.700,    5.280288e-02
 335,     4.7375,     14.700,    7.107043e-03
 336,     4.7306,      6.118,    3.463552e-03
 337,     4.7241,      7.317,    2.697480e-03
 338,     4.7161,     14.700,    4.281089e-03
 339,     4.7099,      5.109,    2.002568e-03
 340,     4.6978,     14.700,    6.820673e-03
 341,     4.6867,     14.700,    6.866654e-03
 342,     4.6718,     14.700,    5.876865e-03
 343,     4.6516,     14.700,    8.648969e-03
 344,     4.6328,     14.700,    8.984426e-03
 345,     4.6144,     14.700,    9.073731e-03
 346,     4.5983,     10.789,    5.425838e-03
 347,     4.5896,     14.700,    6.562909e-03
 348,     4.5802,     14.700,    6.989116e-03
 349,     4.5679,     14.700,    6.318562e-03
 350,     4.5597,     14.700,    6.477404e-03
 351,     4.5455,     14.700,    9.209914e-03
 352,     4.5330,     14.700,    8.142876e-03
 353,     4.5140,     14.700,    8.846562e-03
 354,     4.4987,     14.700,    1.172056e-02
 355,     4.4824,     14.700,    1.055313e-02
 356,     4.4707,     14.700,    1.062443e-02
 357,     4.4603,      5.624,    2.717914e-03
 358,     4.4516,     14.700,    5.446769e-03
 359,     4.4445,      3.573,    2.156882e-03
 360,     4.4382,      5.158,    2.152702e-03
 361,     4.4335,      5.157,    2.833161e-03
 362,     4.4131,     14.700,    7.867874e-03
 363,     4.3856,     14.700,    8.008547e-03
 364,     4.3593,     14.700,    7.257059e-03
 365,     4.3433,     14.700,    5.981108e-03
 366,     4.3317,     14.700,    6.798407e-03
 367,     4.3187,     14.700,    7.744582e-03
 368,     4.3122,      4.208,    2.676818e-03
 369,     4.3068,      4.808,    1.971811e-03
 370,     4.3009,      5.482,    3.104338e-03
 371,     4.2918,     14.700,    5.402815e-03
 372,     4.2860,      5.122,    2.729941e-03
 373,     4.2742,     14.700,    6.150758e-03
 374,     4.2636,     14.700,    6.021325e-03
 375,     4.2426,     14.700,    5.985174e-03
 376,     4.2330,     14.700,    5.587740e-03
 377,     4.2228,     14.700,    1.036729e-02
 378,     4.2125,     14.700,    1.241284e-02
 379,     4.1941,     14.700,    8.758665e-03
 380,     4.1783,     14.700,    6.809372e-03
 381,     4.1660,     14.700,    7.944845e-03
 382,     4.1497,     14.700,    1.208141e-02
 383,     4.1321,     10.776,    3.158657e-01
 384,     4.1242,     10.153,    3.083732e-01
 385,     4.1218,      7.420,    1.479795e-01
 386,     4.1202,      7.968,    1.276768e-01
 387,     4.1131,     11.564,    3.502118e-01
 388,     4.1074,     13.033,    9.658375e-02
 389,     4.1031,     14.700,    1.599496e-01
 390,     4.0964,     14.700,    2.405062e-02
 391,     4.0537,     14.700,    2.026988e-02
 392,     4.0495,     14.700,    1.451411e-02
 393,     4.0252,     14.700,    2.344472e-01
 394,     4.0091,     14.700,    2.602984e-01
 395,     3.9985,     14.700,    2.525550e-02
 396,     3.9905,     14.253,    1.293691e-01
 397,     3.9873,     13.315,    1.304191e-01
 398,     3.9843,     14.030,    1.276193e-01
 399,     3.9379,     14.188,    1.182775e-02
 400,     3.9332,      8.935,    4.608432e-03
 401,     3.9265,      9.652,    9.043468e-03
 402,     3.9220,      8.413,    6.829688e-03
 403,     3.9161,      3.045,    1.332087e-03
 404,     3.8958,     11.624,    5.936712e-02
 405,     3.8914,     14.661,    8.649635e-02
 406,     3.8851,     11.778,    3.103103e-02
 407,     3.8830,      7.163,    4.397434e-02
 408,     3.8809,      5.371,    2.346406e-02
 409,     3.8787,     12.618,    8.687197e-02
 410,     3.8703,      9.088,    9.802626e-03
 411,     3.8633,      7.159,    2.018458e-03
 412,     3.8540,      8.446,    4.745012e-03
 413,     3.8276,     14.700,    2.629487e-02
 414,     3.8198,     14.700,    3.994535e-02
 415,     3.8143,     14.700,    3.252976e-02
 416,     3.7995,     14.700,    4.378493e-02
 417,     3.7952,     13.925,    1.694346e-01
 418,     3.7829,     13.310,    1.383879e-01
 419,     3.7799,     10.927,    2.640912e-02
 420,     3.7105,     10.713,    1.432390e-01
 421,     3.7072,     13.499,    1.336504e-01
 422,     3.7042,     13.568,    1.182355e-01
 423,     3.6955,     12.816,    2.368152e-01
 424,     3.6911,     13.274,    8.931665e-02
 425,     3.6884,     14.366,    1.283602e-01
 426,     3.6777,     10.893,    3.677780e-02
 427,     3.6707,     11.065,    1.675189e-02
 428,     3.6620,      5.919,    1.166246e-02
 429,     3.6561,     14.700,    4.374037e-02
 430,     3.6521,     14.700,    2.734416e-02
 431,     3.6462,     14.397,    6.801075e-02
 432,     3.6424,     14.700,    3.957468e-02
 433,     3.6353,     12.734,    1.029516e-02
