index,   freq_ppm,   decay_hz, amplitude
   1,     9.0952,      5.829,    2.187733e-03
   2,     9.0877,      8.424,    3.058074e-03
   3,     9.0807,      8.484,    2.005529e-03
   4,     9.0739,     11.617,    3.678668e-03
   5,     9.0605,     14.700,    6.338486e-03
   6,     9.0399,     14.700,    7.530078e-03
   7,     9.0232,     14.700,    6.121267e-03
   8,     9.0114,     14.700,    6.836466e-03
   9,     8.9947,     14.700,    6.151626e-03
  10,     8.9792,     14.700,    5.638958e-03
  11,     8.9652,     14.700,    7.427981e-03
  12,     8.9532,      7.293,    4.152153e-03
  13,     8.9457,      6.497,    2.037723e-03
  14,     8.9420,      5.898,    2.686335e-03
  15,     8.9357,      9.657,    3.247408e-03
  16,     8.9266,     10.709,    5.295523e-03
  17,     8.9131,     14.700,    4.808358e-03
  18,     8.9021,     14.700,    4.940473e-03
  19,     8.8912,     14.700,    5.265953e-03
  20,     8.8802,     14.700,    6.798569e-03
  21,     8.8655,     14.700,    6.968429e-03
  22,     8.8469,     14.700,    5.354425e-03
  23,     8.8339,     14.700,    3.127724e-03
  24,     8.8222,     14.700,    4.678156e-03
  25,     8.8125,     13.583,    4.057531e-03
  26,     8.8046,     14.440,    4.126295e-03
  27,     8.7924,      7.517,    3.539118e-03
  28,     8.7842,     14.700,    3.497177e-03
  29,     8.7747,     14.700,    4.568954e-03
  30,     8.7661,     14.700,    4.601282e-03
  31,     8.7508,     14.700,    7.035205e-03
  32,     8.7352,     14.700,    4.396618e-03
  33,     8.7245,     14.700,    3.866736e-03
  34,     8.7147,     14.700,    5.510386e-03
  35,     8.7029,     14.700,    3.334645e-03
  36,     8.6924,     14.700,    6.700490e-03
  37,     8.6750,      8.408,    3.548869e-03
  38,     8.6620,     14.700,    5.580405e-03
  39,     8.6437,     14.700,    4.370999e-03
  40,     8.6262,     14.700,    5.877312e-03
  41,     8.6114,     14.700,    4.948195e-03
  42,     8.6005,     14.700,    5.035285e-03
  43,     8.5889,     14.700,    5.454894e-03
  44,     8.5727,     11.643,    5.099354e-03
  45,     8.5640,      9.931,    6.078375e-03
  46,     8.5510,     14.496,    5.593728e-03
  47,     8.5409,     14.415,    6.411727e-03
  48,     8.5281,     14.173,    4.759084e-03
  49,     8.5186,     13.708,    5.982878e-03
  50,     8.5130,      9.910,    3.071978e-03
  51,     8.5056,     13.975,    4.656208e-03
  52,     8.4964,     14.700,    4.795055e-03
  53,     8.4866,      6.580,    2.977871e-03
  54,     8.4774,      6.731,    2.756023e-03
  55,     8.4702,     14.700,    4.750680e-03
  56,     8.4464,      6.759,    1.442695e-01
  57,     8.4450,      9.145,    2.766576e-01
  58,     8.4382,     14.636,    3.752472e-02
  59,     8.4282,     14.633,    1.823704e-02
  60,     8.4114,     14.604,    1.267366e-02
  61,     8.3963,     14.596,    1.273800e-02
  62,     8.3629,     14.603,    1.217951e-02
  63,     8.3234,     14.700,    8.222749e-03
  64,     8.3171,      4.894,    2.114051e-03
  65,     8.3102,     12.942,    3.640281e-03
  66,     8.3034,      6.024,    2.537902e-03
  67,     8.2948,     14.700,    4.858348e-03
  68,     8.2848,     13.758,    4.291855e-03
  69,     8.2771,     10.336,    4.302675e-03
  70,     8.2698,      9.677,    4.011014e-03
  71,     8.2629,      7.354,    2.798741e-03
  72,     8.2565,     11.399,    3.711832e-03
  73,     8.2464,     14.700,    5.992942e-03
  74,     8.2306,     14.700,    6.795362e-03
  75,     8.2008,     14.700,    6.515661e-03
  76,     8.1772,     14.700,    6.411490e-03
  77,     8.1609,     14.700,    5.344605e-03
  78,     8.1439,     14.700,    6.648427e-03
  79,     8.1185,     14.700,    6.815170e-03
  80,     8.1097,     10.890,    3.761462e-03
  81,     8.0937,     14.700,    4.464686e-03
  82,     8.0764,     14.700,    3.784196e-03
  83,     8.0625,      9.131,    3.381339e-03
  84,     8.0546,     11.366,    4.805038e-03
  85,     8.0446,     12.122,    4.420795e-03
  86,     8.0342,     14.700,    4.828228e-03
  87,     8.0217,     14.700,    4.826526e-03
  88,     8.0089,     13.553,    5.959809e-03
  89,     7.9998,      7.224,    2.861569e-03
  90,     7.9936,      4.897,    1.514219e-03
  91,     7.9881,      8.979,    2.587538e-03
  92,     7.9737,     10.377,    4.516194e-03
  93,     7.9657,      6.980,    2.130585e-03
  94,     7.9592,      9.955,    4.209590e-03
  95,     7.9499,     14.700,    5.520448e-03
  96,     7.9367,     14.700,    5.055169e-03
  97,     7.9158,     14.700,    6.343064e-03
  98,     7.8985,     14.700,    4.948765e-03
  99,     7.8851,     14.700,    5.376572e-03
 100,     7.8750,     14.700,    4.835836e-03
 101,     7.8658,     14.700,    6.236183e-03
 102,     7.8568,     14.700,    8.451983e-03
 103,     7.8462,     14.700,    5.095229e-03
 104,     7.8375,      8.786,    1.844237e-03
 105,     7.8096,     14.700,    5.933381e-03
 106,     7.7915,     14.700,    5.821327e-03
 107,     7.7757,     14.700,    7.044363e-03
 108,     7.7650,     14.700,    5.023550e-03
 109,     7.7431,     14.700,    6.828736e-03
 110,     7.7168,     14.700,    6.319676e-03
 111,     7.7027,     14.700,    6.030885e-03
 112,     7.6920,     14.700,    3.940535e-03
 113,     7.6793,     14.700,    5.471225e-03
 114,     7.6711,      6.003,    2.028970e-03
 115,     7.6623,     14.700,    5.980628e-03
 116,     7.6519,     14.700,    3.878716e-03
 117,     7.6437,      4.318,    1.056254e-03
 118,     7.6412,     11.107,    4.037577e-03
 119,     7.6332,     12.159,    3.571455e-03
 120,     7.6249,     11.672,    4.736026e-03
 121,     7.6174,      1.916,    7.929620e-04
 122,     7.6152,      3.669,    1.021009e-03
 123,     7.6075,      8.997,    3.592526e-03
 124,     7.5997,      3.869,    1.510597e-03
 125,     7.5924,     14.700,    5.537942e-03
 126,     7.5697,     14.700,    5.937926e-03
 127,     7.5527,     14.700,    5.194953e-03
 128,     7.5353,     14.700,    6.087058e-03
 129,     7.5114,     14.700,    4.379098e-03
 130,     7.4951,     14.700,    5.150904e-03
 131,     7.4851,     14.700,    7.247999e-03
 132,     7.4730,     14.700,    1.001494e-02
 133,     7.4633,     14.700,    5.006076e-03
 134,     7.4512,     14.700,    4.601439e-03
 135,     7.4403,     14.700,    4.015298e-03
 136,     7.4211,     14.700,    5.605164e-03
 137,     7.4090,     14.700,    4.423053e-03
 138,     7.4044,     14.700,    4.446745e-03
 139,     7.3887,     14.700,    4.486348e-03
 140,     7.3746,     14.700,    6.814254e-03
 141,     7.3639,     14.700,    4.574712e-03
 142,     7.3544,     14.700,    3.703545e-03
 143,     7.3450,     10.322,    4.807566e-03
 144,     7.3345,     14.700,    3.938039e-03
 145,     7.3254,     14.507,    4.682770e-03
 146,     7.3172,      5.912,    2.160359e-03
 147,     7.3022,     14.700,    4.366540e-03
 148,     7.2814,     14.700,    5.018548e-03
 149,     7.2732,      6.962,    2.598467e-03
 150,     7.2643,      5.772,    1.982871e-03
 151,     7.2568,     14.700,    2.722640e-03
 152,     7.2498,     14.700,    4.071070e-03
 153,     7.2393,     13.112,    3.999557e-03
 154,     7.2340,      1.917,    6.407372e-04
 155,     7.2272,      7.177,    3.782863e-03
 156,     7.2198,      6.324,    2.435159e-03
 157,     7.2154,      6.194,    1.554694e-03
 158,     7.2030,     14.700,    4.631230e-03
 159,     7.1927,     14.700,    4.727220e-03
 160,     7.1785,     12.989,    2.831325e-03
 161,     7.1688,     14.700,    4.428525e-03
 162,     7.1608,      9.316,    3.377488e-03
 163,     7.1476,     14.700,    4.396331e-03
 164,     7.1309,     14.700,    4.520058e-03
 165,     7.1142,     14.313,    3.433015e-03
 166,     7.1052,      4.593,    2.204906e-03
 167,     7.0950,     14.700,    3.551963e-03
 168,     7.0863,     10.306,    2.200972e-03
 169,     7.0784,     14.700,    7.197167e-03
 170,     7.0649,     10.494,    2.082108e-03
 171,     7.0576,     14.700,    5.600335e-03
 172,     7.0476,     14.700,    4.023025e-03
 173,     7.0365,     14.700,    4.010445e-03
 174,     7.0276,     14.700,    2.360131e-03
 175,     7.0214,     14.700,    4.344082e-03
 176,     7.0147,     10.372,    1.636775e-03
 177,     7.0088,     14.700,    5.297358e-03
 178,     7.0004,      5.215,    2.402006e-03
 179,     6.9928,      7.020,    4.023138e-03
 180,     6.9863,     11.554,    4.459677e-03
 181,     6.9768,     12.851,    4.940849e-03
 182,     6.9603,     14.632,    7.468185e-03
 183,     6.9469,     14.416,    5.476884e-03
 184,     6.9326,     14.564,    7.590497e-03
 185,     6.9194,      4.748,    1.831982e-03
 186,     6.9120,      6.327,    1.971309e-03
 187,     6.9063,      5.399,    2.718281e-03
 188,     6.8941,     14.700,    5.518797e-03
 189,     6.8838,     14.700,    4.050749e-03
 190,     6.8736,     14.700,    4.505314e-03
 191,     6.8646,      7.528,    3.482119e-03
 192,     6.8590,      7.129,    2.302207e-03
 193,     6.8507,     14.700,    6.526388e-03
 194,     6.8304,     14.700,    5.643680e-03
 195,     6.8151,     14.700,    6.467672e-03
 196,     6.7965,     14.700,    5.061581e-03
 197,     6.7865,     14.700,    5.478842e-03
 198,     6.7734,     14.700,    5.423304e-03
 199,     6.7655,     14.700,    6.766740e-03
 200,     6.7498,     14.700,    5.619844e-03
 201,     6.7403,     14.700,    5.003956e-03
 202,     6.7275,     14.700,    6.232952e-03
 203,     6.7137,     14.700,    5.306719e-03
 204,     6.7014,     14.700,    5.517479e-03
 205,     6.6895,     14.700,    5.765435e-03
 206,     6.6768,     14.700,    5.229399e-03
 207,     6.6665,      5.949,    2.848028e-03
 208,     6.6587,     14.700,    3.840086e-03
 209,     6.6514,     14.700,    3.971157e-03
 210,     6.6430,     14.700,    5.087225e-03
 211,     6.6289,     14.700,    5.598073e-03
 212,     6.6202,     13.734,    6.469798e-03
 213,     6.6117,     14.700,    5.340694e-03
 214,     6.6058,     14.700,    4.339579e-03
 215,     6.5938,     14.539,    7.202030e-03
 216,     6.5771,     14.700,    5.972285e-03
 217,     6.5664,     14.700,    5.344395e-03
 218,     6.5552,     14.700,    6.334061e-03
 219,     6.5412,     14.700,    6.249672e-03
 220,     6.5277,     14.700,    8.288503e-03
 221,     6.5076,     10.420,    7.544705e-02
 222,     6.4990,     14.700,    6.864324e-03
 223,     6.4772,     14.700,    5.863777e-03
 224,     6.4601,     14.700,    3.748709e-03
 225,     6.4512,     14.700,    4.468696e-03
 226,     6.4320,     14.700,    4.522299e-03
 227,     6.4242,      2.502,    1.025313e-03
 228,     6.4154,     14.063,    4.195571e-03
 229,     6.4114,      3.636,    1.504880e-03
 230,     6.4033,     14.700,    4.368864e-03
 231,     6.3899,     14.628,    6.688874e-03
 232,     6.3747,     14.597,    6.994409e-03
 233,     6.3598,     14.529,    6.975031e-03
 234,     6.3472,     14.483,    6.285574e-03
 235,     6.3379,     14.413,    5.384033e-03
 236,     6.3224,     14.602,    5.418417e-03
 237,     6.2991,     14.625,    6.922152e-03
 238,     6.2768,     14.388,    3.397283e-03
 239,     6.2701,     13.371,    3.284765e-03
 240,     6.2609,     13.838,    5.099595e-03
 241,     6.2485,     14.573,    4.725929e-03
 242,     6.2346,      9.791,    2.825149e-03
 243,     6.2269,      7.608,    3.075831e-03
 244,     6.2179,     12.122,    5.950809e-03
 245,     6.2107,     10.742,    3.193298e-03
 246,     6.2064,      5.051,    2.236419e-03
 247,     6.1985,     10.846,    3.928008e-03
 248,     6.1900,      9.916,    4.320560e-03
 249,     6.1838,      3.730,    1.551115e-03
 250,     6.1796,     10.402,    2.519415e-03
 251,     6.1711,     12.296,    5.459207e-03
 252,     6.1638,      8.216,    3.594575e-03
 253,     6.1535,     12.267,    5.074018e-03
 254,     6.1441,     11.143,    3.833234e-03
 255,     6.1358,     14.356,    5.307548e-03
 256,     6.1250,     14.700,    7.093978e-03
 257,     6.1105,     14.700,    5.413666e-03
 258,     6.1013,     14.700,    6.199752e-03
 259,     6.0919,     12.274,    5.531244e-03
 260,     6.0800,     10.649,    4.612438e-03
 261,     6.0671,     14.700,    5.493712e-03
 262,     6.0528,     14.700,    6.257079e-03
 263,     6.0417,     14.700,    6.106570e-03
 264,     6.0288,     14.700,    6.922405e-03
 265,     6.0108,     14.700,    5.734734e-03
 266,     5.9948,     14.700,    4.493576e-03
 267,     5.9851,     14.700,    6.237350e-03
 268,     5.9687,     14.700,    6.026078e-03
 269,     5.9585,     14.700,    5.338201e-03
 270,     5.9490,     14.700,    6.176058e-03
 271,     5.9299,      8.043,    3.490211e-03
 272,     5.9174,     14.700,    3.592473e-03
 273,     5.9085,     14.700,    3.313364e-03
 274,     5.8947,     14.700,    3.313095e-03
 275,     5.8873,     14.255,    3.416813e-03
 276,     5.8795,     14.700,    6.517323e-03
 277,     5.8610,     14.700,    5.423258e-03
 278,     5.8473,     14.700,    5.405342e-03
 279,     5.8273,     14.700,    5.310470e-03
 280,     5.8160,     14.700,    4.528142e-03
 281,     5.7975,     14.700,    5.009361e-03
 282,     5.7887,     14.700,    4.835226e-03
 283,     5.7803,     14.700,    5.748826e-03
 284,     5.7584,     14.700,    6.392663e-03
 285,     5.7449,     14.700,    4.835818e-03
 286,     5.7332,     14.700,    5.715127e-03
 287,     5.7048,     14.700,    6.342284e-03
 288,     5.6831,     14.700,    5.937921e-03
 289,     5.6606,     14.700,    6.285490e-03
 290,     5.6434,     14.700,    7.045389e-03
 291,     5.6323,     14.700,    4.655808e-03
 292,     5.6039,     14.700,    5.604961e-03
 293,     5.5873,     14.700,    6.193137e-03
 294,     5.5681,     14.700,    4.819258e-03
 295,     5.5588,     14.700,    4.183765e-03
 296,     5.5449,     14.700,    6.171352e-03
 297,     5.5304,     14.700,    4.984259e-03
 298,     5.5222,      9.841,    2.974761e-03
 299,     5.5104,     14.700,    4.287297e-03
 300,     5.5009,     14.700,    4.240307e-03
 301,     5.4842,     14.700,    6.794243e-03
 302,     5.4685,     14.700,    6.289933e-03
 303,     5.4454,     14.700,    8.140348e-03
 304,     5.4203,     14.700,    8.146868e-03
 305,     5.4024,     14.700,    6.101247e-03
 306,     5.3821,     14.700,    5.446034e-03
 307,     5.3687,     14.700,    5.816442e-03
 308,     5.3618,      4.073,    1.321428e-03
 309,     5.3541,      5.583,    2.259439e-03
 310,     5.3443,     13.873,    3.964437e-03
 311,     5.3337,      4.393,    1.588323e-03
 312,     5.3256,     14.700,    2.888961e-03
 313,     5.3179,     14.700,    2.927114e-03
 314,     5.3044,      6.600,    3.533603e-03
 315,     5.2952,     14.700,    4.611322e-03
 316,     5.2798,     14.700,    5.324880e-03
 317,     5.2624,     14.700,    4.611234e-03
 318,     5.2521,     14.700,    4.533213e-03
 319,     5.2433,     14.700,    5.559478e-03
 320,     5.2332,     11.167,    2.899342e-03
 321,     5.2269,     12.008,    2.818387e-03
 322,     5.2165,     11.290,    3.262674e-03
 323,     5.2060,     10.511,    3.790408e-03
 324,     5.1926,     14.700,    5.515634e-03
 325,     5.1824,     14.700,    5.822415e-03
 326,     5.1732,      9.555,    3.734781e-03
 327,     5.1613,     11.558,    3.323086e-03
 328,     5.1519,     10.568,    2.997768e-03
 329,     5.1452,     14.700,    5.944893e-03
 330,     5.1342,     14.700,    4.376249e-03
 331,     5.1228,     14.700,    6.011858e-03
 332,     5.1069,      8.321,    3.869908e-03
 333,     5.0961,     14.700,    5.727497e-03
 334,     5.0839,     14.700,    5.336289e-03
 335,     5.0736,     14.700,    5.796636e-03
 336,     5.0639,     14.700,    5.196091e-03
 337,     5.0564,      8.142,    3.515382e-03
 338,     5.0466,     14.700,    5.841679e-03
 339,     5.0360,     14.700,    4.416981e-03
 340,     5.0256,     10.427,    2.672893e-03
 341,     5.0185,      5.531,    1.875005e-03
 342,     5.0149,     12.292,    4.764970e-03
 343,     5.0067,      7.605,    3.153005e-03
 344,     4.9983,      6.903,    2.934376e-03
 345,     4.9909,      3.258,    1.239684e-03
 346,     4.9853,     14.700,    3.929852e-03
 347,     4.9745,     14.239,    4.167425e-03
 348,     4.9600,     14.700,    4.871947e-03
 349,     4.9455,     14.700,    4.408635e-03
 350,     4.9353,      8.098,    2.141913e-03
 351,     4.9264,     14.700,    5.738182e-03
 352,     4.9097,     14.700,    5.132255e-03
 353,     4.8989,     14.700,    6.339826e-03
 354,     4.8843,     11.390,    4.710621e-03
 355,     4.8737,     14.700,    5.465414e-03
 356,     4.8616,     11.857,    3.710634e-03
 357,     4.8523,     14.700,    2.550612e-03
 358,     4.8470,      7.152,    2.425386e-03
 359,     4.8403,     14.700,    3.539472e-03
 360,     4.8292,      9.962,    3.852374e-03
 361,     4.8184,     14.700,    5.622760e-03
 362,     4.8074,     14.700,    3.929458e-02
 363,     4.7979,     14.700,    4.474213e-02
 364,     4.7887,     14.700,    3.711931e-02
 365,     4.7791,     14.700,    7.765176e-02
 366,     4.7719,      3.174,    2.157597e-02
 367,     4.7637,     10.943,    4.174982e-02
 368,     4.7558,     14.700,    4.723875e-02
 369,     4.7485,     14.700,    3.595119e-02
 370,     4.7416,     14.700,    3.313371e-02
 371,     4.7345,     10.314,    3.518013e-03
 372,     4.7247,      5.457,    1.878411e-03
 373,     4.7167,     14.700,    2.488122e-03
 374,     4.7091,     14.700,    2.179211e-03
 375,     4.6981,      6.008,    1.917878e-03
 376,     4.6914,      7.967,    3.076474e-03
 377,     4.6860,      7.616,    2.954727e-03
 378,     4.6797,     14.700,    3.377601e-03
 379,     4.6734,      6.766,    1.849740e-03
 380,     4.6611,     10.887,    4.015055e-03
 381,     4.6542,     14.700,    5.479468e-03
 382,     4.6381,     14.700,    5.897549e-03
 383,     4.6268,     14.700,    6.151442e-03
 384,     4.6100,     14.700,    5.509365e-03
 385,     4.5931,     14.700,    5.553334e-03
 386,     4.5800,     14.700,    6.483275e-03
 387,     4.5563,     14.700,    6.731510e-03
 388,     4.5479,      4.773,    2.646551e-03
 389,     4.5385,      5.969,    2.238227e-03
 390,     4.5316,      8.979,    4.334513e-03
 391,     4.5224,      8.439,    2.398860e-03
 392,     4.5166,      7.675,    2.130479e-03
 393,     4.5083,      8.169,    2.432966e-03
 394,     4.5022,      4.154,    8.270052e-04
 395,     4.4939,     10.289,    2.034504e-03
 396,     4.4848,     14.673,    4.174262e-03
 397,     4.4743,     14.700,    4.317583e-03
 398,     4.4649,     14.700,    3.670724e-03
 399,     4.4540,      4.631,    1.456588e-03
 400,     4.4500,      5.268,    2.496851e-03
 401,     4.4414,      6.137,    3.052797e-03
 402,     4.4313,      6.321,    2.282640e-03
 403,     4.4231,      8.022,    2.113905e-03
 404,     4.4159,      8.137,    2.507565e-03
 405,     4.4069,     14.700,    4.015881e-03
 406,     4.3906,     14.700,    4.306236e-03
 407,     4.3816,      5.537,    1.688692e-03
 408,     4.3743,     14.700,    3.887088e-03
 409,     4.3651,     14.700,    4.289362e-03
 410,     4.3583,      6.502,    2.580997e-03
 411,     4.3510,      7.122,    3.525962e-03
 412,     4.3443,      7.366,    2.443810e-03
 413,     4.3418,      2.007,    5.436715e-04
 414,     4.3344,      8.153,    4.302952e-03
 415,     4.3265,      7.706,    2.858850e-03
 416,     4.3211,     14.700,    5.964695e-03
 417,     4.3117,     12.045,    5.159338e-03
 418,     4.2991,     14.700,    5.365065e-03
 419,     4.2825,     14.700,    5.123039e-03
 420,     4.2725,     14.700,    4.282821e-03
 421,     4.2578,     14.700,    6.829324e-03
 422,     4.2443,      4.433,    2.115827e-03
 423,     4.2375,      5.498,    7.839464e-04
 424,     4.2328,     13.415,    3.289484e-03
 425,     4.2235,      9.747,    4.178939e-03
 426,     4.2153,      5.675,    2.483376e-03
 427,     4.2091,     14.700,    6.814425e-03
 428,     4.1996,     14.700,    6.373222e-03
 429,     4.1890,     14.700,    6.160185e-03
 430,     4.1672,     14.700,    7.101502e-03
 431,     4.1417,     14.700,    6.309010e-03
 432,     4.1256,     14.700,    5.786576e-03
 433,     4.1105,      9.285,    4.522326e-03
