index,   freq_ppm,   decay_hz, amplitude
   1,     9.0678,     10.438,    2.138443e-03
   2,     9.0601,      9.835,    1.398981e-03
   3,     9.0551,      7.278,    7.759564e-04
   4,     9.0468,      5.097,    4.734348e-04
   5,     9.0364,     14.700,    3.426742e-03
   6,     9.0223,     14.700,    2.185671e-03
   7,     9.0146,     14.700,    2.847567e-03
   8,     9.0065,     14.700,    2.097871e-03
   9,     8.9941,     13.641,    3.421796e-03
  10,     8.9869,     14.700,    2.542882e-03
  11,     8.9792,     14.700,    1.630753e-03
  12,     8.9729,     14.700,    2.009518e-03
  13,     8.9636,     14.700,    2.208480e-03
  14,     8.9468,     14.700,    1.283487e-03
  15,     8.9297,     11.426,    1.708515e-03
  16,     8.9192,     14.700,    3.142388e-03
  17,     8.8977,     14.700,    1.980473e-03
  18,     8.8811,     14.700,    3.405193e-03
  19,     8.8678,     14.700,    3.051218e-03
  20,     8.8493,     14.700,    2.601509e-03
  21,     8.8389,     14.700,    3.873073e-03
  22,     8.8196,     14.700,    2.648167e-03
  23,     8.8073,     14.700,    2.500118e-03
  24,     8.7980,     14.700,    2.555894e-03
  25,     8.7884,     14.700,    2.320746e-03
  26,     8.7779,     14.700,    3.005448e-03
  27,     8.7645,      8.331,    1.187889e-03
  28,     8.7536,     12.379,    1.177376e-03
  29,     8.7468,     10.387,    9.516673e-04
  30,     8.7415,      9.487,    1.804125e-03
  31,     8.7294,     14.700,    1.972883e-03
  32,     8.7246,     10.690,    1.844033e-03
  33,     8.7127,     14.700,    3.069510e-03
  34,     8.7026,     12.763,    1.649139e-03
  35,     8.6982,      2.729,    4.179635e-04
  36,     8.6931,      5.509,    1.074390e-03
  37,     8.6873,     14.700,    1.403363e-03
  38,     8.6805,      7.643,    9.105259e-04
  39,     8.6725,      7.778,    1.560693e-03
  40,     8.6659,      7.663,    6.867846e-04
  41,     8.6587,     14.053,    1.873853e-03
  42,     8.6457,     12.193,    1.558668e-03
  43,     8.6326,     14.700,    2.204394e-03
  44,     8.6214,     12.766,    2.739265e-03
  45,     8.6153,     14.700,    1.875887e-03
  46,     8.6030,     14.700,    1.964153e-03
  47,     8.5891,     11.098,    5.451233e-04
  48,     8.5856,      2.598,    5.501697e-04
  49,     8.5793,     14.700,    2.994525e-03
  50,     8.5646,     14.700,    7.416163e-03
  51,     8.5518,     14.700,    3.448032e-03
  52,     8.5429,     14.700,    3.489130e-03
  53,     8.5326,     14.700,    2.553610e-03
  54,     8.5178,     14.700,    4.270066e-03
  55,     8.4990,     14.700,    3.652624e-03
  56,     8.4469,      6.615,    8.044567e-02
  57,     8.4455,      6.245,    1.481508e-01
  58,     8.4440,     10.590,    1.108442e-01
  59,     8.4375,     14.700,    2.412398e-02
  60,     8.4283,     14.700,    1.333873e-02
  61,     8.4176,     14.700,    9.338790e-03
  62,     8.4053,     14.700,    9.593473e-03
  63,     8.3955,     14.700,    4.885196e-03
  64,     8.3857,     14.700,    2.850838e-03
  65,     8.3757,     14.700,    3.350496e-03
  66,     8.3595,     14.700,    2.980335e-03
  67,     8.3496,     14.700,    2.695823e-03
  68,     8.3206,     14.700,    7.680628e-03
  69,     8.2986,     14.700,    2.718821e-03
  70,     8.2902,     14.700,    1.867748e-03
  71,     8.2843,     11.166,    1.554857e-03
  72,     8.2769,     14.120,    1.667530e-03
  73,     8.2701,     14.700,    3.107805e-03
  74,     8.2576,     10.978,    1.499664e-03
  75,     8.2461,     14.700,    2.419624e-03
  76,     8.2342,     12.770,    1.154889e-03
  77,     8.2264,      6.631,    9.660394e-04
  78,     8.2173,      8.543,    8.266409e-04
  79,     8.2111,     14.700,    2.696963e-03
  80,     8.2025,     11.255,    1.187284e-03
  81,     8.1953,     14.700,    7.526436e-04
  82,     8.1871,     14.700,    1.839190e-03
  83,     8.1733,     14.700,    2.738475e-03
  84,     8.1552,     14.700,    1.226714e-03
  85,     8.1449,     14.700,    2.433704e-03
  86,     8.1400,     14.700,    1.986377e-03
  87,     8.1265,     14.700,    2.111345e-03
  88,     8.1129,      2.348,    5.279934e-04
  89,     8.1084,      9.461,    2.031593e-03
  90,     8.1030,     12.377,    1.389620e-03
  91,     8.0953,     14.700,    2.192365e-03
  92,     8.0881,     10.404,    2.497964e-03
  93,     8.0803,      7.254,    1.141373e-03
  94,     8.0713,     14.700,    2.592182e-03
  95,     8.0638,     14.700,    3.287615e-03
  96,     8.0529,     14.700,    2.182967e-03
  97,     8.0433,     14.700,    2.128419e-03
  98,     8.0335,      9.259,    1.397423e-03
  99,     8.0260,     14.700,    2.231726e-03
 100,     8.0149,     11.722,    2.402726e-03
 101,     8.0048,     12.389,    2.889130e-03
 102,     7.9926,     10.582,    1.829089e-03
 103,     7.9831,     14.700,    3.655691e-03
 104,     7.9779,      0.356,    2.442155e-04
 105,     7.9685,     11.826,    1.782581e-03
 106,     7.9606,     14.700,    2.928201e-03
 107,     7.9516,     13.700,    2.058723e-03
 108,     7.9460,     14.700,    1.912632e-03
 109,     7.9438,     12.299,    1.241125e-03
 110,     7.9296,     14.180,    8.267759e-04
 111,     7.9229,     13.821,    1.459148e-03
 112,     7.9149,     11.377,    2.091645e-03
 113,     7.9101,      7.151,    1.511611e-03
 114,     7.9024,      8.950,    1.290388e-03
 115,     7.8922,     14.700,    2.252387e-03
 116,     7.8758,     14.450,    2.289801e-03
 117,     7.8655,     14.700,    6.157688e-03
 118,     7.8566,     14.700,    6.200042e-03
 119,     7.8524,     14.700,    2.349220e-03
 120,     7.8435,     14.700,    1.853020e-03
 121,     7.8351,      4.538,    8.390007e-04
 122,     7.8299,      5.290,    8.100531e-04
 123,     7.8208,     10.060,    8.051438e-04
 124,     7.8131,     11.693,    1.832558e-03
 125,     7.8063,      7.021,    1.202915e-03
 126,     7.7971,     14.700,    2.023982e-03
 127,     7.7839,     14.700,    3.249937e-03
 128,     7.7604,     14.700,    3.053097e-03
 129,     7.7538,     14.700,    3.140266e-03
 130,     7.7430,     14.700,    2.130591e-03
 131,     7.7265,     14.468,    2.467076e-03
 132,     7.7187,      5.889,    7.143174e-04
 133,     7.7095,     14.700,    2.657195e-03
 134,     7.6983,      0.000,    1.687623e-04
 135,     7.6943,      6.327,    1.320860e-03
 136,     7.6841,     14.700,    2.279748e-03
 137,     7.6785,      8.361,    1.013937e-03
 138,     7.6740,      7.794,    1.201389e-03
 139,     7.6658,      9.071,    1.414048e-03
 140,     7.6610,      8.711,    4.863310e-04
 141,     7.6528,     12.788,    2.252438e-03
 142,     7.6437,     14.700,    1.702771e-03
 143,     7.6293,     14.700,    2.161948e-03
 144,     7.6229,      5.094,    7.212961e-04
 145,     7.6169,     14.700,    1.896425e-03
 146,     7.6058,     14.700,    1.271347e-03
 147,     7.5912,     14.700,    2.806511e-03
 148,     7.5816,     14.700,    2.689183e-03
 149,     7.5697,     13.745,    1.381582e-03
 150,     7.5603,      9.686,    1.242156e-03
 151,     7.5527,     14.700,    3.330142e-03
 152,     7.5442,     13.632,    3.949836e-03
 153,     7.5341,     10.896,    2.886610e-03
 154,     7.5289,      9.644,    1.651553e-03
 155,     7.5254,      4.421,    2.217474e-04
 156,     7.5224,      0.000,    1.141644e-04
 157,     7.5169,     14.700,    2.775998e-03
 158,     7.5000,      9.339,    1.156718e-03
 159,     7.4926,      6.443,    6.547358e-04
 160,     7.4834,     14.099,    2.881504e-03
 161,     7.4804,     11.266,    2.766676e-03
 162,     7.4722,     14.700,    8.809694e-03
 163,     7.4629,     14.700,    3.615055e-03
 164,     7.4466,     14.700,    3.515373e-03
 165,     7.4358,     14.700,    3.823765e-03
 166,     7.4252,     14.700,    4.397329e-03
 167,     7.4008,     14.700,    2.804755e-03
 168,     7.3925,     14.700,    2.225222e-03
 169,     7.3828,     14.700,    2.399670e-03
 170,     7.3759,      0.000,    2.069169e-04
 171,     7.3733,     13.919,    2.978994e-03
 172,     7.3653,     14.700,    3.874143e-03
 173,     7.3563,     14.700,    4.729560e-03
 174,     7.3470,     14.700,    3.391003e-03
 175,     7.3324,     14.700,    3.671523e-03
 176,     7.3223,     14.700,    3.134331e-03
 177,     7.3127,     14.700,    3.938894e-03
 178,     7.2980,     14.700,    2.527138e-03
 179,     7.2863,     14.700,    3.264409e-03
 180,     7.2717,     14.700,    3.433664e-03
 181,     7.2524,     14.700,    3.631033e-03
 182,     7.2349,     14.700,    4.190148e-03
 183,     7.2224,     14.700,    4.518600e-03
 184,     7.2048,     14.700,    4.004875e-03
 185,     7.1945,     14.700,    3.801829e-03
 186,     7.1338,     14.700,    3.871454e-03
 187,     7.1192,     14.700,    3.980622e-03
 188,     7.1117,      6.769,    1.035161e-03
 189,     7.1045,      2.935,    4.662469e-04
 190,     7.0942,     14.700,    1.766100e-03
 191,     7.0866,      6.696,    1.048258e-03
 192,     7.0795,     13.474,    5.318199e-03
 193,     7.0723,     14.700,    2.510629e-03
 194,     7.0588,     14.700,    1.240815e-03
 195,     7.0475,     14.017,    2.638071e-03
 196,     7.0335,      2.179,    1.998410e-04
 197,     7.0277,     14.700,    2.865574e-03
 198,     7.0189,     14.700,    1.817593e-03
 199,     7.0089,     14.700,    2.816704e-03
 200,     6.9932,     12.856,    3.228714e-03
 201,     6.9838,     14.700,    1.701113e-03
 202,     6.9784,     14.700,    2.542101e-03
 203,     6.9686,     12.578,    2.107458e-03
 204,     6.9607,     11.800,    2.311344e-03
 205,     6.9491,      7.777,    1.014181e-03
 206,     6.9395,     14.700,    2.846006e-03
 207,     6.9308,     14.700,    1.521279e-03
 208,     6.9225,     14.700,    3.696214e-03
 209,     6.9103,     10.327,    1.530536e-03
 210,     6.9045,     14.700,    3.034230e-03
 211,     6.8977,      8.081,    2.066821e-03
 212,     6.8832,     14.700,    2.565566e-03
 213,     6.8610,     14.700,    3.039924e-03
 214,     6.8443,     14.700,    2.776311e-03
 215,     6.8255,     14.700,    2.802846e-03
 216,     6.8117,     14.700,    4.179755e-03
 217,     6.7946,     14.700,    3.552757e-03
 218,     6.7781,     14.700,    3.036482e-03
 219,     6.7676,     14.700,    3.265417e-03
 220,     6.7534,     14.700,    4.505228e-03
 221,     6.7376,     14.700,    2.555118e-03
 222,     6.7275,     14.700,    3.106785e-03
 223,     6.7095,     14.700,    2.806650e-03
 224,     6.6971,     14.700,    2.488181e-03
 225,     6.6868,     14.700,    1.161324e-03
 226,     6.6774,     14.700,    2.843756e-03
 227,     6.6665,     14.700,    2.793380e-03
 228,     6.6588,     14.700,    2.119567e-03
 229,     6.6474,     12.317,    1.988843e-03
 230,     6.6386,     12.822,    1.912443e-03
 231,     6.6326,      5.833,    1.000241e-03
 232,     6.6234,     10.970,    1.917081e-03
 233,     6.6151,      4.773,    1.061887e-03
 234,     6.6108,      8.339,    7.293208e-04
 235,     6.6007,     14.700,    2.869235e-03
 236,     6.5784,     14.700,    3.070249e-03
 237,     6.5653,     14.700,    3.574708e-03
 238,     6.5563,     14.700,    1.883554e-03
 239,     6.5450,     14.700,    1.785103e-03
 240,     6.5356,     14.700,    2.731395e-03
 241,     6.5183,     14.700,    1.959151e-03
 242,     6.5051,     14.700,    3.874929e-03
 243,     6.4957,     14.700,    2.579130e-03
 244,     6.4643,     14.700,    2.762365e-03
 245,     6.4551,     14.700,    2.664782e-03
 246,     6.4366,     14.700,    3.054102e-03
 247,     6.4305,      6.046,    8.591140e-04
 248,     6.4205,     14.700,    1.562346e-03
 249,     6.4106,     12.518,    1.147092e-03
 250,     6.4020,     14.700,    2.181605e-03
 251,     6.3917,     14.700,    2.896451e-03
 252,     6.3834,     14.700,    1.655002e-03
 253,     6.3699,     14.700,    2.781028e-03
 254,     6.3624,     14.700,    5.543960e-03
 255,     6.3543,      3.453,    7.039144e-04
 256,     6.3464,     14.700,    2.898876e-03
 257,     6.3356,     14.700,    3.079972e-03
 258,     6.3220,     14.700,    2.767533e-03
 259,     6.3092,     14.700,    4.141482e-03
 260,     6.2916,     14.700,    3.270847e-03
 261,     6.2733,     14.700,    2.824071e-03
 262,     6.2520,     14.700,    1.903518e-03
 263,     6.2429,     14.700,    2.293210e-03
 264,     6.2358,     14.700,    1.934267e-03
 265,     6.2273,      9.584,    1.604166e-03
 266,     6.2219,     11.364,    2.870071e-03
 267,     6.2139,     14.700,    1.765849e-03
 268,     6.2008,     10.967,    1.797165e-03
 269,     6.1957,     14.700,    1.645692e-03
 270,     6.1881,     14.700,    1.472254e-03
 271,     6.1808,     14.700,    1.764214e-03
 272,     6.1723,     14.700,    1.804414e-03
 273,     6.1550,     14.700,    3.625760e-03
 274,     6.1436,     14.700,    3.776697e-03
 275,     6.1341,     14.700,    1.409812e-03
 276,     6.1266,     14.700,    2.848945e-03
 277,     6.1140,     14.700,    2.194507e-03
 278,     6.0971,     14.700,    5.018731e-03
 279,     6.0797,     14.700,    6.156583e-03
 280,     6.0674,     14.700,    4.694236e-03
 281,     6.0556,     14.700,    4.057136e-03
 282,     6.0245,     14.700,    4.574021e-03
 283,     6.0052,     14.700,    3.980773e-03
 284,     5.9892,     14.700,    3.878638e-03
 285,     5.9770,     14.700,    2.786963e-03
 286,     5.9651,     14.700,    1.968688e-03
 287,     5.9513,     14.700,    2.131899e-03
 288,     5.9367,     14.700,    3.958428e-03
 289,     5.9176,     14.700,    3.424199e-03
 290,     5.9075,     14.700,    1.682682e-03
 291,     5.8954,     14.700,    3.814084e-03
 292,     5.8749,     14.700,    3.611464e-03
 293,     5.8558,     14.700,    2.337030e-03
 294,     5.8453,     14.700,    1.695798e-03
 295,     5.8342,     14.700,    1.598374e-03
 296,     5.8257,     14.102,    2.750360e-03
 297,     5.8081,     14.134,    3.332380e-03
 298,     5.7994,     13.578,    2.696400e-03
 299,     5.7915,     13.813,    2.471225e-03
 300,     5.7820,     13.281,    2.457452e-03
 301,     5.7676,     12.007,    1.994461e-03
 302,     5.7586,     12.875,    2.181584e-03
 303,     5.7519,      5.222,    4.592786e-04
 304,     5.7444,     14.700,    2.335554e-03
 305,     5.7362,      5.239,    5.723096e-04
 306,     5.7246,     14.700,    3.009650e-03
 307,     5.7176,     14.475,    2.152392e-03
 308,     5.7060,     14.496,    2.076046e-03
 309,     5.7005,      3.332,    5.853687e-04
 310,     5.6906,     14.700,    2.119341e-03
 311,     5.6797,     14.700,    1.075340e-03
 312,     5.6726,     11.197,    1.361839e-03
 313,     5.6645,      4.468,    7.789753e-04
 314,     5.6541,     13.838,    3.407973e-03
 315,     5.6434,     13.066,    1.098742e-03
 316,     5.6386,     12.829,    3.298093e-03
 317,     5.6347,      2.097,    3.254183e-04
 318,     5.6253,     14.700,    2.583789e-03
 319,     5.6163,     14.700,    2.355969e-03
 320,     5.6061,     14.700,    2.372113e-03
 321,     5.5952,     14.700,    2.664025e-03
 322,     5.5851,     14.700,    2.176417e-03
 323,     5.5728,     14.700,    1.669498e-03
 324,     5.5663,     14.700,    1.869475e-03
 325,     5.5507,     14.700,    3.170278e-03
 326,     5.5400,     14.700,    3.329139e-03
 327,     5.5281,     14.700,    1.914693e-03
 328,     5.5206,     14.700,    1.840464e-03
 329,     5.5109,     14.700,    2.538624e-03
 330,     5.5024,     14.700,    3.862541e-03
 331,     5.4936,     14.700,    3.398092e-03
 332,     5.4841,     14.700,    3.502027e-03
 333,     5.4723,     14.700,    3.561563e-03
 334,     5.4584,     14.700,    3.355804e-03
 335,     5.4446,     14.700,    3.653391e-03
 336,     5.4421,      8.950,    1.998020e-03
 337,     5.4350,      2.500,    4.758866e-04
 338,     5.4306,     14.700,    2.206172e-03
 339,     5.4213,     14.700,    3.075124e-03
 340,     5.4092,     14.700,    4.276687e-03
 341,     5.4009,     14.700,    3.280839e-03
 342,     5.3972,      4.298,    1.188924e-03
 343,     5.3942,      8.727,    1.291101e-03
 344,     5.3888,     14.700,    3.568828e-03
 345,     5.3805,     12.243,    2.637116e-03
 346,     5.3681,     14.700,    3.632904e-03
 347,     5.3582,     14.700,    2.854024e-03
 348,     5.3482,     14.700,    3.482456e-03
 349,     5.3371,     14.700,    3.381343e-03
 350,     5.3251,     14.700,    3.811343e-03
 351,     5.3180,     11.844,    2.065244e-03
 352,     5.3086,     14.700,    2.011743e-03
 353,     5.2975,     14.700,    2.155634e-03
 354,     5.2859,     14.700,    2.718788e-03
 355,     5.2785,     14.700,    1.544806e-03
 356,     5.2696,     14.700,    4.322823e-03
 357,     5.2548,     14.700,    1.760736e-03
 358,     5.2426,     14.700,    2.547418e-03
 359,     5.2341,     14.700,    3.890017e-03
 360,     5.2228,     14.700,    2.642869e-03
 361,     5.2077,     14.700,    3.325895e-03
 362,     5.1931,     14.700,    2.387308e-03
 363,     5.1809,      9.055,    1.299390e-03
 364,     5.1724,      0.000,    1.985068e-04
 365,     5.1673,     10.496,    1.935756e-03
 366,     5.1598,     14.700,    1.395645e-03
 367,     5.1571,      2.226,    4.033393e-04
 368,     5.1524,     14.446,    2.157966e-03
 369,     5.1458,      2.741,    5.341567e-04
 370,     5.1360,     14.700,    2.603620e-03
 371,     5.1290,      0.000,    1.945888e-04
 372,     5.1252,     12.036,    2.552113e-03
 373,     5.1193,      7.551,    7.552623e-04
 374,     5.1083,     14.700,    2.678355e-03
 375,     5.1001,     14.700,    2.226707e-03
 376,     5.0910,     14.700,    1.713098e-03
 377,     5.0841,      4.732,    6.166220e-04
 378,     5.0697,     14.700,    2.072361e-03
 379,     5.0602,     14.700,    2.033517e-03
 380,     5.0510,     14.700,    3.351279e-03
 381,     5.0293,     14.700,    2.735737e-03
 382,     5.0042,     14.700,    1.322103e-03
 383,     4.9878,     14.700,    3.799116e-03
 384,     4.9750,     14.700,    3.363187e-03
 385,     4.9617,     14.700,    3.373647e-03
 386,     4.9501,     14.700,    3.392238e-03
 387,     4.9400,     14.700,    3.350383e-03
 388,     4.9249,     14.700,    2.891924e-03
 389,     4.9138,      4.831,    6.204112e-04
 390,     4.9076,     12.640,    2.529640e-03
 391,     4.8992,     14.700,    9.238831e-04
 392,     4.8915,     14.700,    2.829590e-03
 393,     4.8869,      3.927,    4.729683e-04
 394,     4.8763,     14.700,    3.369442e-03
 395,     4.8668,     13.083,    2.395445e-03
 396,     4.8615,      4.048,    6.434221e-04
 397,     4.8549,     14.700,    2.965960e-03
 398,     4.8488,     14.700,    4.656041e-03
 399,     4.8394,     10.711,    3.713432e-03
 400,     4.8352,      8.600,    1.974303e-03
 401,     4.8281,     14.700,    4.099040e-03
 402,     4.8193,     14.700,    3.356529e-03
 403,     4.8077,     14.700,    4.763128e-02
 404,     4.7979,     14.700,    4.412219e-02
 405,     4.7881,     14.700,    4.914240e-02
 406,     4.7733,     14.700,    5.536595e-02
 407,     4.7635,     14.700,    5.833057e-02
 408,     4.7526,     14.700,    5.330042e-03
 409,     4.7437,     14.700,    3.003365e-03
 410,     4.7337,     14.700,    3.913564e-03
 411,     4.7235,     14.700,    3.359524e-03
 412,     4.7117,     14.700,    2.458506e-03
 413,     4.7066,      9.950,    1.550020e-03
 414,     4.6984,     14.700,    3.241717e-03
 415,     4.6905,     14.700,    2.861326e-03
 416,     4.6851,      3.258,    6.350166e-04
 417,     4.6780,     13.786,    3.713934e-03
 418,     4.6708,     12.140,    2.446001e-03
 419,     4.6660,      0.000,    1.932140e-04
 420,     4.6581,     14.700,    2.467810e-03
 421,     4.6496,     14.700,    2.860369e-03
 422,     4.6397,      4.391,    9.835468e-04
 423,     4.6322,      9.423,    1.855880e-03
 424,     4.6280,      3.824,    6.568509e-04
 425,     4.6254,      7.217,    1.403526e-03
 426,     4.6162,     14.700,    3.274679e-03
 427,     4.6043,     14.700,    2.229090e-03
 428,     4.5931,     14.700,    2.971168e-03
 429,     4.5796,     14.700,    3.381750e-03
 430,     4.5673,     14.700,    1.838641e-03
 431,     4.5587,     14.700,    1.852990e-03
 432,     4.5483,     14.700,    2.741626e-03
 433,     4.5332,     14.700,    1.872001e-03
