index,   freq_ppm,   decay_hz, amplitude
   1,     8.9644,      7.876,    2.174685e-02
   2,     8.9564,     13.548,    6.942526e-02
   3,     8.9495,      9.276,    6.165473e-02
   4,     8.9436,     15.000,    5.497016e-02
   5,     8.9321,     15.000,    7.806534e-02
   6,     8.9228,     15.000,    1.161896e-01
   7,     8.9069,     15.000,    1.488019e-01
   8,     8.8868,     15.000,    1.374594e-01
   9,     8.8571,     15.000,    1.614531e-01
  10,     8.8443,     15.000,    9.511550e-02
  11,     8.8332,     15.000,    1.033976e-01
  12,     8.8138,     15.000,    8.356138e-02
  13,     8.7996,     15.000,    7.655397e-02
  14,     8.7884,     12.617,    5.941527e-02
  15,     8.7795,     15.000,    9.521077e-02
  16,     8.7657,     15.000,    8.251740e-02
  17,     8.7513,     15.000,    1.516352e-01
  18,     8.7263,     15.000,    1.482813e-01
  19,     8.7039,     15.000,    1.341746e-01
  20,     8.6905,     15.000,    1.334335e-01
  21,     8.6768,     15.000,    1.425684e-01
  22,     8.6625,     15.000,    1.198271e-01
  23,     8.6497,     15.000,    1.088738e-01
  24,     8.6360,     15.000,    1.085371e-01
  25,     8.6251,     15.000,    9.574611e-02
  26,     8.6055,     15.000,    9.509393e-02
  27,     8.5950,     15.000,    1.013642e-01
  28,     8.5790,     15.000,    1.338797e-01
  29,     8.5651,     14.808,    8.286000e-02
  30,     8.5562,     12.260,    4.727796e-02
  31,     8.5509,      5.200,    2.767430e-02
  32,     8.5453,     14.147,    7.592820e-02
  33,     8.5356,      8.794,    5.003694e-02
  34,     8.5271,     14.923,    1.321764e-01
  35,     8.4971,     15.000,    1.084769e-01
  36,     8.4842,     15.000,    1.061214e-01
  37,     8.4464,      3.175,    8.209460e-01
  38,     8.4452,      3.624,    1.129137e+00
  39,     8.4434,     10.176,    1.005251e+00
  40,     8.4313,     15.000,    1.888053e-01
  41,     8.4240,     15.000,    8.222112e-02
  42,     8.4112,     15.000,    1.206473e-01
  43,     8.3941,     15.000,    9.760157e-02
  44,     8.3779,     15.000,    1.200618e-01
  45,     8.3687,     15.000,    1.192965e-01
  46,     8.3590,     14.811,    1.084840e-01
  47,     8.3510,     15.000,    4.548535e-02
  48,     8.3390,      8.719,    5.428567e-02
  49,     8.3306,     14.743,    1.081489e-01
  50,     8.3194,     11.239,    9.873392e-02
  51,     8.3150,      7.037,    2.859217e-02
  52,     8.3079,     11.194,    6.464963e-02
  53,     8.3014,      8.364,    4.097942e-02
  54,     8.2933,     15.000,    8.344300e-02
  55,     8.2818,     15.000,    8.083636e-02
  56,     8.2729,     15.000,    8.309568e-02
  57,     8.2583,     14.466,    6.101753e-02
  58,     8.2485,     15.000,    8.884066e-02
  59,     8.2385,     15.000,    9.530494e-02
  60,     8.2308,     15.000,    8.262023e-02
  61,     8.2176,     15.000,    1.201649e-01
  62,     8.1962,     15.000,    8.245499e-02
  63,     8.1838,     15.000,    7.168382e-02
  64,     8.1723,     15.000,    6.513108e-02
  65,     8.1587,     14.765,    6.320337e-02
  66,     8.1502,     15.000,    1.108598e-01
  67,     8.1413,     15.000,    8.249409e-02
  68,     8.1342,     13.129,    5.936681e-02
  69,     8.1248,     15.000,    1.032897e-01
  70,     8.1174,      5.848,    2.836965e-02
  71,     8.1115,      7.626,    2.745758e-02
  72,     8.1081,      9.345,    6.450869e-02
  73,     8.0993,      6.566,    5.943890e-02
  74,     8.0915,     10.112,    7.236891e-02
  75,     8.0810,     14.004,    8.212872e-02
  76,     8.0700,     11.316,    4.107825e-02
  77,     8.0636,     14.850,    1.333832e-01
  78,     8.0547,     12.438,    6.487382e-02
  79,     8.0501,      8.878,    5.174063e-02
  80,     8.0380,     15.000,    7.782333e-02
  81,     8.0218,     15.000,    1.127194e-01
  82,     8.0090,     15.000,    1.423657e-01
  83,     7.9927,     15.000,    1.045294e-01
  84,     7.9739,     15.000,    1.393197e-01
  85,     7.9596,     15.000,    4.840776e-02
  86,     7.9550,     15.000,    1.148240e-01
  87,     7.9435,      9.139,    1.510192e-02
  88,     7.9373,      5.817,    2.976309e-02
  89,     7.9288,     15.000,    1.420610e-01
  90,     7.9130,     15.000,    1.141166e-01
  91,     7.8955,     15.000,    1.356910e-01
  92,     7.8806,     15.000,    6.643564e-02
  93,     7.8740,     15.000,    8.155213e-02
  94,     7.8644,     15.000,    1.087534e-01
  95,     7.8571,     13.330,    7.256702e-02
  96,     7.8422,     15.000,    9.021526e-02
  97,     7.8244,     15.000,    1.043213e-01
  98,     7.8087,     15.000,    9.055849e-02
  99,     7.7944,     11.953,    5.593016e-02
 100,     7.7835,     15.000,    1.091479e-01
 101,     7.7738,     14.909,    8.272040e-02
 102,     7.7672,     15.000,    6.040158e-02
 103,     7.7556,      8.732,    6.768002e-02
 104,     7.7452,     15.000,    1.105811e-01
 105,     7.7365,     14.562,    1.199415e-01
 106,     7.7260,     11.339,    6.352231e-02
 107,     7.7169,      7.217,    2.003772e-02
 108,     7.7088,     11.449,    6.107097e-02
 109,     7.6992,     11.487,    8.174199e-02
 110,     7.6929,     15.000,    1.474584e-01
 111,     7.6725,     15.000,    6.370058e-02
 112,     7.6588,     15.000,    1.279724e-01
 113,     7.6439,     15.000,    1.102014e-01
 114,     7.6320,     15.000,    8.164791e-02
 115,     7.6149,     15.000,    6.492237e-02
 116,     7.6036,     15.000,    1.312752e-01
 117,     7.5867,     15.000,    9.939694e-02
 118,     7.5697,     15.000,    1.095478e-01
 119,     7.5557,     15.000,    9.814034e-02
 120,     7.5431,     14.982,    1.057971e-01
 121,     7.5325,     15.000,    1.027272e-01
 122,     7.5180,     15.000,    8.165121e-02
 123,     7.5107,     14.686,    8.116723e-02
 124,     7.5018,     10.011,    6.765743e-02
 125,     7.4932,     15.000,    6.444933e-02
 126,     7.4827,     15.000,    9.065349e-02
 127,     7.4713,     15.000,    9.625803e-02
 128,     7.4617,     13.254,    6.950057e-02
 129,     7.4581,     11.771,    3.852380e-02
 130,     7.4438,     12.694,    1.034595e-01
 131,     7.4368,      6.250,    4.699907e-02
 132,     7.4329,      8.972,    2.719377e-02
 133,     7.4281,     14.143,    7.672516e-02
 134,     7.4245,      8.346,    3.374000e-02
 135,     7.4167,      4.477,    2.706092e-02
 136,     7.4117,      7.873,    5.244047e-02
 137,     7.4065,      9.768,    2.896342e-02
 138,     7.3980,     15.000,    1.319567e-01
 139,     7.3677,     15.000,    1.614050e-01
 140,     7.3590,     15.000,    1.264882e-01
 141,     7.3489,     15.000,    9.938453e-02
 142,     7.3364,     15.000,    1.017826e-01
 143,     7.3237,     15.000,    1.027066e-01
 144,     7.3121,     15.000,    1.609618e-01
 145,     7.3044,     13.209,    1.329935e-01
 146,     7.3000,      6.230,    2.564898e-02
 147,     7.2915,     15.000,    1.116515e-01
 148,     7.2831,     12.060,    7.810512e-02
 149,     7.2761,     15.000,    1.133471e-01
 150,     7.2675,     15.000,    1.117263e-01
 151,     7.2533,     14.926,    1.222668e-01
 152,     7.2480,     15.000,    3.962033e-02
 153,     7.2393,     15.000,    8.815337e-02
 154,     7.2280,     15.000,    1.014678e-01
 155,     7.2192,     12.676,    5.538311e-02
 156,     7.2142,     11.869,    7.542275e-02
 157,     7.2090,      4.237,    3.148520e-02
 158,     7.1956,     15.000,    1.131534e-01
 159,     7.1879,      7.516,    4.914501e-02
 160,     7.1824,     14.841,    8.982603e-02
 161,     7.1734,     15.000,    7.120140e-02
 162,     7.1605,     15.000,    7.120463e-02
 163,     7.1434,     15.000,    1.189953e-01
 164,     7.1333,     15.000,    7.134911e-02
 165,     7.1243,     14.696,    1.027545e-01
 166,     7.1139,     15.000,    7.756481e-02
 167,     7.1024,     15.000,    1.380334e-01
 168,     7.0896,     15.000,    7.475848e-02
 169,     7.0786,     12.200,    1.970075e-01
 170,     7.0698,     15.000,    1.088887e-01
 171,     7.0623,     15.000,    1.014013e-01
 172,     7.0551,      6.178,    3.677264e-02
 173,     7.0473,      7.983,    4.938659e-02
 174,     7.0387,     15.000,    1.263095e-01
 175,     7.0282,     14.989,    7.690062e-02
 176,     7.0226,     15.000,    1.077424e-01
 177,     7.0082,     14.917,    9.446415e-02
 178,     6.9982,     15.000,    6.361436e-02
 179,     6.9906,      4.319,    2.784417e-02
 180,     6.9838,     10.117,    6.023245e-02
 181,     6.9783,      8.145,    5.609341e-02
 182,     6.9673,     15.000,    9.516411e-02
 183,     6.9594,      5.971,    2.145028e-02
 184,     6.9546,     10.630,    6.817672e-02
 185,     6.9500,      4.254,    3.645581e-02
 186,     6.9404,     15.000,    1.009709e-01
 187,     6.9334,     14.598,    5.825330e-02
 188,     6.9189,     15.000,    8.819428e-02
 189,     6.9070,     15.000,    8.698162e-02
 190,     6.8960,     14.914,    7.972274e-02
 191,     6.8816,     15.000,    1.402822e-01
 192,     6.8681,     15.000,    1.746763e-01
 193,     6.8169,     15.000,    1.656500e-01
 194,     6.7941,     15.000,    7.603159e-02
 195,     6.7834,     15.000,    1.306059e-01
 196,     6.7681,     15.000,    9.682596e-02
 197,     6.7570,     15.000,    8.758990e-02
 198,     6.7485,     15.000,    9.543206e-02
 199,     6.7359,     15.000,    9.469228e-02
 200,     6.7244,     15.000,    1.293258e-01
 201,     6.7124,     14.966,    8.703889e-02
 202,     6.7016,     15.000,    1.252115e-01
 203,     6.6847,     15.000,    1.493920e-01
 204,     6.6722,     15.000,    1.500512e-01
 205,     6.6531,     11.695,    9.547687e-02
 206,     6.6468,      6.366,    3.830270e-02
 207,     6.6367,     15.000,    1.417271e-01
 208,     6.6314,      8.483,    4.147012e-02
 209,     6.6197,     15.000,    1.195129e-01
 210,     6.6125,     15.000,    6.241042e-02
 211,     6.6057,     14.194,    1.010036e-01
 212,     6.5983,      9.680,    7.838634e-02
 213,     6.5859,      3.419,    2.782116e-02
 214,     6.5772,     15.000,    9.190372e-02
 215,     6.5655,     15.000,    1.783094e-01
 216,     6.5426,     15.000,    1.321025e-01
 217,     6.5161,     15.000,    1.330948e-01
 218,     6.4976,     15.000,    1.289368e-01
 219,     6.4770,     15.000,    1.211156e-01
 220,     6.4561,     15.000,    1.295068e-01
 221,     6.4290,     15.000,    1.220375e-01
 222,     6.4096,     15.000,    9.451562e-02
 223,     6.4000,     15.000,    8.603956e-02
 224,     6.3910,     15.000,    7.317928e-02
 225,     6.3849,     15.000,    8.717435e-02
 226,     6.3768,     15.000,    9.053484e-02
 227,     6.3625,     15.000,    1.964121e-01
 228,     6.3321,     15.000,    1.259594e-01
 229,     6.3143,     15.000,    1.359878e-01
 230,     6.2839,     15.000,    1.444746e-01
 231,     6.2307,     15.000,    1.406818e-01
 232,     6.2114,     15.000,    1.148781e-01
 233,     6.1986,     15.000,    1.283345e-01
 234,     6.1698,     15.000,    9.755389e-02
 235,     6.1549,     14.983,    1.180302e-01
 236,     6.1475,     10.462,    3.763429e-02
 237,     6.1354,      2.864,    2.304588e-02
 238,     6.1291,     14.225,    6.666099e-02
 239,     6.1199,     15.000,    8.568284e-02
 240,     6.1091,     15.000,    1.005465e-01
 241,     6.0995,     15.000,    1.099242e-01
 242,     6.0870,     15.000,    9.217951e-02
 243,     6.0789,     15.000,    4.634078e-02
 244,     6.0697,     15.000,    1.272091e-01
 245,     6.0550,     15.000,    1.398668e-01
 246,     6.0405,     15.000,    1.513380e-01
 247,     6.0288,     15.000,    8.762679e-02
 248,     6.0147,     15.000,    1.172649e-01
 249,     6.0054,     15.000,    1.339557e-01
 250,     5.9920,     15.000,    1.237999e-01
 251,     5.9822,     15.000,    1.705681e-01
 252,     5.9723,     15.000,    8.772425e-02
 253,     5.9603,     15.000,    1.250282e-01
 254,     5.9492,     15.000,    1.492997e-01
 255,     5.9358,     15.000,    1.259978e-01
 256,     5.9187,     11.909,    1.139888e-01
 257,     5.9110,      7.866,    4.146934e-02
 258,     5.9011,     13.209,    8.258897e-02
 259,     5.8955,     11.630,    7.264899e-02
 260,     5.8895,     12.922,    7.917716e-02
 261,     5.8814,     15.000,    8.861367e-02
 262,     5.8682,     15.000,    1.022989e-01
 263,     5.8581,     15.000,    1.116173e-01
 264,     5.8479,     15.000,    1.335047e-01
 265,     5.8299,     15.000,    1.132482e-01
 266,     5.8153,     13.756,    6.139138e-02
 267,     5.8084,     13.238,    4.528361e-02
 268,     5.8027,     14.076,    9.038726e-02
 269,     5.7937,     13.006,    5.520165e-02
 270,     5.7886,      8.685,    5.072251e-02
 271,     5.7804,      6.104,    3.621433e-02
 272,     5.7757,      7.770,    5.122903e-02
 273,     5.7695,      5.544,    3.716945e-02
 274,     5.7665,      5.695,    2.750102e-02
 275,     5.7546,     15.000,    1.194886e-01
 276,     5.7430,     15.000,    4.806491e-02
 277,     5.7300,     15.000,    1.186658e-01
 278,     5.7175,     15.000,    9.766481e-02
 279,     5.7090,     15.000,    7.763070e-02
 280,     5.7024,     15.000,    6.868481e-02
 281,     5.6833,     15.000,    9.542817e-02
 282,     5.6711,     15.000,    6.197152e-02
 283,     5.6628,     14.909,    1.044103e-01
 284,     5.6515,     15.000,    4.341464e-02
 285,     5.6416,     15.000,    1.158212e-01
 286,     5.6284,     13.796,    6.117745e-02
 287,     5.6205,     15.000,    1.108329e-01
 288,     5.6114,     15.000,    6.494084e-02
 289,     5.5989,     15.000,    9.036664e-02
 290,     5.5832,     15.000,    1.192658e-01
 291,     5.5706,     15.000,    1.298890e-01
 292,     5.5522,     15.000,    8.248868e-02
 293,     5.5364,      7.617,    4.133071e-02
 294,     5.5308,     15.000,    8.422247e-02
 295,     5.5192,     15.000,    8.729800e-02
 296,     5.5088,     15.000,    1.061394e-01
 297,     5.4985,      7.110,    4.662267e-02
 298,     5.4932,      4.773,    3.702784e-02
 299,     5.4870,      6.577,    4.785628e-02
 300,     5.4786,      7.605,    4.910584e-02
 301,     5.4657,     15.000,    1.075407e-01
 302,     5.4523,     15.000,    1.108745e-01
 303,     5.4378,     15.000,    1.062495e-01
 304,     5.4226,     14.846,    8.234424e-02
 305,     5.4113,     15.000,    1.152053e-01
 306,     5.3966,     15.000,    1.061891e-01
 307,     5.3869,     15.000,    1.333722e-01
 308,     5.3732,     15.000,    1.336916e-01
 309,     5.3614,     15.000,    1.320918e-01
 310,     5.3476,     15.000,    1.126943e-01
 311,     5.3358,     15.000,    1.064694e-01
 312,     5.3202,     15.000,    8.828913e-02
 313,     5.3089,     15.000,    1.221687e-01
 314,     5.3001,     15.000,    1.226312e-01
 315,     5.2841,     15.000,    1.419094e-01
 316,     5.2707,     15.000,    1.161026e-01
 317,     5.2562,     15.000,    1.152007e-01
 318,     5.2419,      5.498,    2.005195e-02
 319,     5.2381,      5.929,    4.431617e-02
 320,     5.2313,      7.943,    5.457494e-02
 321,     5.2231,     13.835,    3.710716e-02
 322,     5.2153,      8.586,    4.844566e-02
 323,     5.2066,     15.000,    8.995254e-02
 324,     5.1927,     15.000,    1.430834e-01
 325,     5.1774,     15.000,    9.916102e-02
 326,     5.1591,     15.000,    1.054028e-01
 327,     5.1501,     14.802,    6.860755e-02
 328,     5.1369,     14.976,    8.380991e-02
 329,     5.1299,     15.000,    1.036733e-01
 330,     5.1208,     15.000,    9.564538e-02
 331,     5.1099,     11.422,    8.478382e-02
 332,     5.0967,     15.000,    6.333514e-02
 333,     5.0861,     15.000,    9.546946e-02
 334,     5.0778,     15.000,    1.429718e-01
 335,     5.0596,     15.000,    1.396668e-01
 336,     5.0487,     15.000,    1.208790e-01
 337,     5.0372,     15.000,    1.395936e-01
 338,     5.0196,     15.000,    1.228446e-01
 339,     5.0099,     15.000,    1.327825e-01
 340,     4.9904,     10.305,    8.137526e-02
 341,     4.9800,     13.070,    9.846847e-02
 342,     4.9699,     15.000,    1.485660e-01
 343,     4.9535,     15.000,    8.553758e-02
 344,     4.9440,     15.000,    8.884893e-02
 345,     4.9346,      3.163,    1.564762e-02
 346,     4.9299,      8.502,    3.927229e-02
 347,     4.9218,     15.000,    1.088836e-01
 348,     4.9133,     14.780,    7.127766e-02
 349,     4.9097,     10.556,    6.351136e-02
 350,     4.9036,      8.122,    2.361153e-02
 351,     4.9006,      9.107,    3.302240e-02
 352,     4.8963,      5.875,    3.450549e-02
 353,     4.8894,      3.570,    2.834000e-02
 354,     4.8833,     12.891,    7.127520e-02
 355,     4.8728,     14.509,    8.153834e-02
 356,     4.8597,     15.000,    7.010493e-02
 357,     4.8511,      8.817,    4.312262e-02
 358,     4.8427,      5.594,    4.579128e-02
 359,     4.8368,      8.529,    5.777803e-02
 360,     4.8246,     15.000,    1.980278e+00
 361,     4.8151,     15.000,    2.028363e+00
 362,     4.8055,     15.000,    2.044550e+00
 363,     4.7963,     15.000,    1.950601e+00
 364,     4.7876,     15.000,    2.148515e+00
 365,     4.7772,     15.000,    2.782903e+00
 366,     4.7613,     15.000,    2.451275e+00
 367,     4.7491,     15.000,    2.617594e+00
 368,     4.7372,     15.000,    2.560607e+00
 369,     4.7247,     15.000,    2.346884e+00
 370,     4.7127,     15.000,    2.454799e+00
 371,     4.7005,     15.000,    2.598863e+00
 372,     4.6932,     15.000,    1.440378e-01
 373,     4.6876,      1.332,    1.369576e-02
 374,     4.6835,      1.782,    1.149038e-02
 375,     4.6809,      1.548,    1.695467e-02
 376,     4.6731,     15.000,    7.910126e-02
 377,     4.6589,     15.000,    1.089858e-01
 378,     4.6467,     15.000,    1.148190e-01
 379,     4.6376,     15.000,    9.504226e-02
 380,     4.6152,     15.000,    9.656598e-02
 381,     4.6021,     15.000,    1.078802e-01
 382,     4.5828,     15.000,    1.208714e-01
 383,     4.5729,     15.000,    1.350671e-01
 384,     4.5557,     15.000,    1.266447e-01
 385,     4.5261,     15.000,    1.441443e-01
 386,     4.5092,     15.000,    1.117730e-01
 387,     4.4891,     15.000,    9.513920e-02
 388,     4.4613,     15.000,    1.865585e-01
 389,     4.4376,     15.000,    1.215506e-01
 390,     4.4271,     15.000,    8.709807e-02
 391,     4.4162,     14.718,    5.993395e-02
 392,     4.4047,     14.721,    1.124130e-01
 393,     4.3915,     15.000,    8.331619e-02
 394,     4.3732,     14.895,    7.768553e-02
 395,     4.3643,     10.675,    5.685452e-02
 396,     4.3589,     12.350,    8.347867e-02
 397,     4.3471,     14.894,    1.073124e-01
 398,     4.3396,     14.510,    1.007901e-01
 399,     4.3317,     15.000,    1.161467e-01
 400,     4.3120,     15.000,    9.879363e-02
 401,     4.3019,     15.000,    7.701340e-02
 402,     4.2934,     15.000,    1.306913e-01
 403,     4.2730,     11.508,    6.945129e-02
 404,     4.2615,     13.812,    1.232212e-01
 405,     4.2541,     15.000,    1.659615e-01
 406,     4.2323,     15.000,    1.938070e-01
 407,     4.2155,     15.000,    1.451102e-01
 408,     4.1985,     15.000,    1.179817e-01
 409,     4.1813,     15.000,    1.565762e-01
 410,     4.1662,     15.000,    1.454234e-01
 411,     4.1499,     15.000,    9.895150e-02
 412,     4.1433,      6.086,    3.670467e-02
 413,     4.1299,     12.267,    4.341396e-02
 414,     4.1202,     11.981,    3.922099e-02
 415,     4.1115,      7.842,    8.420508e-02
 416,     4.1032,     11.328,    2.334640e-01
 417,     4.0946,      9.517,    2.137614e-01
 418,     4.0854,     13.080,    1.791034e-01
 419,     4.0777,      9.307,    4.987483e-02
 420,     4.0631,     15.000,    1.216929e-01
 421,     4.0562,     15.000,    2.508394e-01
 422,     4.0503,     15.000,    3.044876e-01
 423,     4.0439,     14.897,    9.990922e-02
 424,     4.0369,     12.432,    8.639503e-02
 425,     4.0292,     15.000,    5.175872e-02
 426,     4.0064,     15.000,    1.173397e-01
 427,     3.9929,     15.000,    9.292089e-02
 428,     3.9846,     15.000,    7.414486e-02
 429,     3.9732,     15.000,    6.139167e-02
 430,     3.9562,     15.000,    8.925035e-02
 431,     3.9449,     15.000,    1.210062e-01
 432,     3.9340,     15.000,    2.155759e-01
 433,     3.9271,      6.123,    3.597009e-02
