index,   freq_ppm,   decay_hz, amplitude
   1,     8.9812,     15.000,    1.216449e-01
   2,     8.9733,     15.000,    5.664211e-02
   3,     8.9583,     15.000,    7.387675e-02
   4,     8.9482,      9.719,    3.835355e-02
   5,     8.9293,     15.000,    1.466163e-01
   6,     8.9176,     15.000,    1.015547e-01
   7,     8.8985,      6.609,    3.473093e-02
   8,     8.8913,      9.987,    5.910305e-02
   9,     8.8852,      5.489,    1.466823e-02
  10,     8.8813,      4.484,    1.171308e-02
  11,     8.8773,      7.451,    6.178781e-02
  12,     8.8688,      6.279,    4.875128e-02
  13,     8.8600,      6.751,    3.490176e-02
  14,     8.8547,      5.845,    2.317310e-02
  15,     8.8477,      8.556,    4.622713e-02
  16,     8.8403,     14.998,    4.959946e-02
  17,     8.8297,     15.000,    1.158843e-01
  18,     8.8179,     15.000,    9.623241e-02
  19,     8.8035,     15.000,    1.128870e-01
  20,     8.7810,     15.000,    7.704772e-02
  21,     8.7703,     15.000,    9.680630e-02
  22,     8.7589,     15.000,    8.324580e-02
  23,     8.7389,     15.000,    9.021415e-02
  24,     8.7204,      3.113,    1.060297e-02
  25,     8.7086,     15.000,    1.125509e-01
  26,     8.7000,     12.450,    7.309966e-02
  27,     8.6899,     14.598,    6.339319e-02
  28,     8.6745,     15.000,    8.467413e-02
  29,     8.6619,     15.000,    7.073968e-02
  30,     8.6471,     15.000,    6.555550e-02
  31,     8.6350,     15.000,    7.409025e-02
  32,     8.6182,     15.000,    9.431861e-02
  33,     8.6073,      7.774,    1.758267e-02
  34,     8.6022,     14.108,    8.807749e-02
  35,     8.5955,     14.946,    5.783753e-02
  36,     8.5844,      7.333,    3.818804e-02
  37,     8.5786,      4.080,    2.375215e-02
  38,     8.5641,     14.976,    1.293280e-01
  39,     8.5553,     15.000,    5.085873e-02
  40,     8.5473,     15.000,    7.918183e-02
  41,     8.5340,     15.000,    6.707947e-02
  42,     8.5135,     15.000,    9.025287e-02
  43,     8.5005,      9.577,    4.770317e-02
  44,     8.4921,     15.000,    6.512719e-02
  45,     8.4759,      9.221,    4.659516e-02
  46,     8.4581,      5.157,    1.999214e-02
  47,     8.4467,      2.545,    8.821969e-01
  48,     8.4455,      2.281,    1.332413e+00
  49,     8.4443,      6.257,    2.109215e+00
  50,     8.4382,     15.000,    1.586606e-01
  51,     8.4288,     12.274,    8.270928e-02
  52,     8.4203,     15.000,    1.026651e-01
  53,     8.4079,     15.000,    1.846433e-01
  54,     8.3926,      6.484,    2.587200e-02
  55,     8.3821,     15.000,    1.032785e-01
  56,     8.3654,     15.000,    5.772765e-02
  57,     8.3579,     15.000,    7.980908e-02
  58,     8.3490,     14.616,    4.390371e-02
  59,     8.3375,     15.000,    8.781945e-02
  60,     8.3307,     15.000,    7.211134e-02
  61,     8.3208,     10.487,    7.764911e-02
  62,     8.3138,     15.000,    8.082975e-02
  63,     8.3034,     15.000,    6.805060e-02
  64,     8.2943,      7.347,    3.263228e-02
  65,     8.2844,      6.220,    2.573072e-02
  66,     8.2795,      7.800,    3.062784e-02
  67,     8.2740,      7.756,    2.507186e-02
  68,     8.2693,      6.732,    2.318146e-02
  69,     8.2606,     12.073,    7.340287e-02
  70,     8.2488,     10.972,    3.451946e-02
  71,     8.2412,     13.079,    9.923334e-02
  72,     8.2342,      6.110,    4.882105e-02
  73,     8.2255,     13.782,    1.096727e-01
  74,     8.2138,     15.000,    8.213440e-02
  75,     8.1964,     15.000,    9.501644e-02
  76,     8.1855,     15.000,    7.760805e-02
  77,     8.1727,     14.980,    6.590407e-02
  78,     8.1623,     15.000,    8.252439e-02
  79,     8.1516,     15.000,    9.496856e-02
  80,     8.1423,     15.000,    1.106485e-01
  81,     8.1273,     15.000,    8.226224e-02
  82,     8.1026,     15.000,    8.801470e-02
  83,     8.0948,     11.097,    6.243610e-02
  84,     8.0818,     15.000,    8.859681e-02
  85,     8.0736,     13.651,    5.761600e-02
  86,     8.0675,      9.829,    4.235377e-02
  87,     8.0612,     10.519,    3.952327e-02
  88,     8.0480,     15.000,    6.211678e-02
  89,     8.0305,     14.349,    5.188509e-02
  90,     8.0172,     14.313,    8.150741e-02
  91,     8.0062,      3.301,    1.268540e-02
  92,     7.9993,     15.000,    5.874645e-02
  93,     7.9848,     15.000,    9.170061e-02
  94,     7.9755,     15.000,    3.330046e-02
  95,     7.9595,     15.000,    1.446628e-01
  96,     7.9472,     15.000,    1.134518e-01
  97,     7.9341,     15.000,    1.130353e-01
  98,     7.9235,     15.000,    1.269691e-01
  99,     7.9070,     15.000,    9.168529e-02
 100,     7.8950,     15.000,    1.111148e-01
 101,     7.8829,     15.000,    8.064946e-02
 102,     7.8738,     15.000,    8.680258e-02
 103,     7.8575,     15.000,    1.077148e-01
 104,     7.8410,     15.000,    1.144655e-01
 105,     7.8299,     15.000,    8.539352e-02
 106,     7.8197,     11.080,    5.021612e-02
 107,     7.8140,      3.253,    2.291633e-02
 108,     7.8101,      2.892,    1.487224e-02
 109,     7.8042,      6.579,    3.181742e-02
 110,     7.7987,      8.764,    5.716577e-02
 111,     7.7899,     12.996,    7.716522e-02
 112,     7.7811,      6.365,    2.662000e-02
 113,     7.7683,     15.000,    9.806260e-02
 114,     7.7548,     15.000,    7.323738e-02
 115,     7.7476,     10.582,    4.725415e-02
 116,     7.7343,     15.000,    1.063251e-01
 117,     7.7173,     15.000,    1.449146e-01
 118,     7.7043,     15.000,    1.059467e-01
 119,     7.6852,     15.000,    8.583200e-02
 120,     7.6733,     15.000,    1.048540e-01
 121,     7.6577,     15.000,    1.083202e-01
 122,     7.6506,     15.000,    7.066569e-02
 123,     7.6371,     15.000,    9.253739e-02
 124,     7.6223,     15.000,    1.252293e-01
 125,     7.6124,     14.425,    1.029184e-01
 126,     7.6038,      6.906,    4.384898e-02
 127,     7.5956,     10.326,    5.889732e-02
 128,     7.5904,     13.386,    6.314703e-02
 129,     7.5812,      3.727,    1.616818e-02
 130,     7.5778,      5.308,    2.558699e-02
 131,     7.5751,      4.659,    2.261119e-02
 132,     7.5665,      8.777,    3.823593e-02
 133,     7.5619,      7.205,    3.267782e-02
 134,     7.5504,     15.000,    1.046558e-01
 135,     7.5395,     13.922,    9.686191e-02
 136,     7.5315,     10.813,    8.184019e-02
 137,     7.5189,     15.000,    9.810764e-02
 138,     7.5113,     15.000,    1.418564e-01
 139,     7.5008,     15.000,    9.441780e-02
 140,     7.4853,     15.000,    1.071321e-01
 141,     7.4749,     15.000,    6.120259e-02
 142,     7.4651,     15.000,    1.210794e-01
 143,     7.4538,     14.757,    8.408484e-02
 144,     7.4434,     15.000,    7.731616e-02
 145,     7.4326,     15.000,    7.834092e-02
 146,     7.4075,     15.000,    1.090129e-01
 147,     7.3963,     15.000,    1.024964e-01
 148,     7.3813,      9.708,    5.428268e-02
 149,     7.3753,      9.823,    5.806965e-02
 150,     7.3686,      6.784,    3.714675e-02
 151,     7.3628,      6.140,    2.795918e-02
 152,     7.3576,      7.352,    4.679918e-02
 153,     7.3502,     10.258,    6.144193e-02
 154,     7.3414,      7.625,    3.843900e-02
 155,     7.3298,     15.000,    1.095992e-01
 156,     7.3145,     15.000,    7.326754e-02
 157,     7.3072,     15.000,    6.666151e-02
 158,     7.2983,     15.000,    1.120531e-01
 159,     7.2878,     15.000,    6.537685e-02
 160,     7.2802,     11.582,    4.765997e-02
 161,     7.2730,     15.000,    7.191156e-02
 162,     7.2565,     14.909,    9.137199e-02
 163,     7.2479,     10.718,    6.868228e-02
 164,     7.2339,     15.000,    8.997782e-02
 165,     7.2213,     13.750,    9.311467e-02
 166,     7.2090,     15.000,    1.119250e-01
 167,     7.2028,      6.405,    3.539129e-02
 168,     7.1971,     13.700,    5.758316e-02
 169,     7.1839,     15.000,    6.915782e-02
 170,     7.1767,     10.530,    1.415198e-01
 171,     7.1672,     13.478,    1.932468e-01
 172,     7.1582,      8.863,    3.061399e-02
 173,     7.1530,      6.856,    3.869596e-02
 174,     7.1452,     15.000,    8.803956e-02
 175,     7.1377,     15.000,    8.170626e-02
 176,     7.1266,     15.000,    7.684731e-02
 177,     7.1165,     14.909,    1.073270e-01
 178,     7.0942,     15.000,    5.638671e-02
 179,     7.0816,     12.261,    1.929365e-01
 180,     7.0683,     12.534,    7.929073e-02
 181,     7.0578,     13.019,    3.242705e-02
 182,     7.0434,     15.000,    6.260142e-02
 183,     7.0248,     15.000,    9.266084e-02
 184,     7.0145,     15.000,    7.670218e-02
 185,     6.9943,     15.000,    8.124813e-02
 186,     6.9858,      8.428,    4.884268e-02
 187,     6.9783,     15.000,    1.080587e-01
 188,     6.9668,     15.000,    1.178180e-01
 189,     6.9550,     15.000,    6.070782e-02
 190,     6.9415,     15.000,    1.300076e-01
 191,     6.9248,     15.000,    1.043626e-01
 192,     6.9182,     15.000,    1.048111e-01
 193,     6.9075,     15.000,    6.777436e-02
 194,     6.8930,     15.000,    1.395851e-01
 195,     6.8788,     15.000,    9.564654e-02
 196,     6.8530,     15.000,    1.845767e-01
 197,     6.8430,     15.000,    1.622058e-01
 198,     6.8316,      6.317,    3.618255e-02
 199,     6.8261,     15.000,    1.126817e-01
 200,     6.8159,     13.667,    9.562892e-02
 201,     6.8095,      5.590,    1.525442e-02
 202,     6.7983,     15.000,    8.182847e-02
 203,     6.7838,     15.000,    8.837617e-02
 204,     6.7710,     15.000,    7.695927e-02
 205,     6.7586,     15.000,    5.377956e-02
 206,     6.7432,     15.000,    7.210772e-02
 207,     6.7300,     14.831,    6.350950e-02
 208,     6.7214,     10.260,    6.193330e-02
 209,     6.7092,     14.911,    7.827299e-02
 210,     6.6992,     15.000,    1.052504e-01
 211,     6.6908,     14.235,    6.163552e-02
 212,     6.6845,      9.995,    4.656474e-02
 213,     6.6720,     15.000,    9.901718e-02
 214,     6.6617,      9.214,    5.938194e-02
 215,     6.6554,     15.000,    7.721344e-02
 216,     6.6366,     10.183,    5.513689e-02
 217,     6.6294,     15.000,    7.624003e-02
 218,     6.6190,     15.000,    1.066420e-01
 219,     6.6103,     15.000,    1.121430e-01
 220,     6.5899,     15.000,    5.194343e-02
 221,     6.5782,     15.000,    7.283206e-02
 222,     6.5594,     15.000,    7.620805e-02
 223,     6.5318,     15.000,    7.838443e-02
 224,     6.5196,     15.000,    5.150694e-02
 225,     6.5072,     15.000,    1.787197e-01
 226,     6.4811,     14.645,    7.357249e-02
 227,     6.4759,     13.398,    4.764435e-02
 228,     6.4675,     11.613,    6.257304e-02
 229,     6.4571,      3.111,    5.826182e-03
 230,     6.4534,     10.946,    7.058202e-02
 231,     6.4390,     14.957,    8.815327e-02
 232,     6.4225,     15.000,    1.125838e-01
 233,     6.4027,     15.000,    7.684133e-02
 234,     6.3737,     15.000,    1.119567e-01
 235,     6.3634,     15.000,    1.701290e-01
 236,     6.3451,      9.382,    5.857696e-02
 237,     6.3381,      2.646,    1.660058e-02
 238,     6.3316,     15.000,    7.940654e-02
 239,     6.3177,     15.000,    7.551596e-02
 240,     6.3099,      6.291,    3.624798e-02
 241,     6.2993,     14.706,    6.599691e-02
 242,     6.2890,     11.243,    7.289696e-02
 243,     6.2828,      4.844,    3.049207e-02
 244,     6.2756,     15.000,    1.360869e-01
 245,     6.2615,     15.000,    1.173615e-01
 246,     6.2276,     15.000,    9.729644e-02
 247,     6.2088,     15.000,    9.085238e-02
 248,     6.1944,     15.000,    1.129729e-01
 249,     6.1710,     15.000,    1.233871e-01
 250,     6.1418,     15.000,    1.041514e-01
 251,     6.1313,     15.000,    1.161769e-01
 252,     6.1213,     15.000,    7.978661e-02
 253,     6.1044,     15.000,    1.249400e-01
 254,     6.0945,     14.611,    4.836582e-02
 255,     6.0842,     15.000,    9.858263e-02
 256,     6.0768,     15.000,    8.377673e-02
 257,     6.0576,     15.000,    9.306502e-02
 258,     6.0510,     15.000,    7.800797e-02
 259,     6.0407,     15.000,    1.192297e-01
 260,     6.0293,     15.000,    6.491848e-02
 261,     6.0211,     15.000,    5.932808e-02
 262,     6.0100,     14.623,    3.159081e-02
 263,     5.9999,     15.000,    7.613351e-02
 264,     5.9952,     11.554,    5.994975e-02
 265,     5.9856,     13.889,    3.410616e-02
 266,     5.9810,      8.393,    4.752665e-02
 267,     5.9694,     11.973,    7.600893e-02
 268,     5.9601,     15.000,    1.157884e-01
 269,     5.9517,     15.000,    8.681454e-02
 270,     5.9307,     15.000,    5.876610e-02
 271,     5.9211,     15.000,    9.923068e-02
 272,     5.9024,     15.000,    1.012573e-01
 273,     5.8789,     15.000,    7.473778e-02
 274,     5.8678,     15.000,    1.150110e-01
 275,     5.8584,     13.175,    5.665185e-02
 276,     5.8451,     15.000,    9.773816e-02
 277,     5.8357,     15.000,    8.129098e-02
 278,     5.8251,     15.000,    9.114113e-02
 279,     5.7909,     15.000,    1.213048e-01
 280,     5.7728,     15.000,    9.510847e-02
 281,     5.7465,     15.000,    7.878406e-02
 282,     5.7303,     15.000,    1.014154e-01
 283,     5.7089,     15.000,    9.370460e-02
 284,     5.6904,     15.000,    9.849963e-02
 285,     5.6754,     15.000,    8.662084e-02
 286,     5.6550,     15.000,    7.961448e-02
 287,     5.6351,     15.000,    8.519174e-02
 288,     5.6260,      5.722,    2.323882e-02
 289,     5.6164,     11.686,    5.243114e-02
 290,     5.6082,     15.000,    8.252995e-02
 291,     5.6013,      3.733,    1.787580e-02
 292,     5.5903,     14.084,    7.844087e-02
 293,     5.5822,     14.726,    5.996347e-02
 294,     5.5728,     15.000,    8.299037e-02
 295,     5.5625,     12.745,    6.412421e-02
 296,     5.5587,      8.447,    3.911819e-02
 297,     5.5487,     10.954,    5.993829e-02
 298,     5.5398,     11.637,    5.280625e-02
 299,     5.5333,     12.682,    5.685814e-02
 300,     5.5245,     15.000,    6.805179e-02
 301,     5.5082,     15.000,    1.125139e-01
 302,     5.4988,     14.155,    6.452559e-02
 303,     5.4826,     15.000,    8.358204e-02
 304,     5.4654,     14.961,    6.919822e-02
 305,     5.4567,     12.721,    6.523288e-02
 306,     5.4461,     15.000,    8.215051e-02
 307,     5.4270,     14.732,    7.491641e-02
 308,     5.4197,      8.594,    6.209094e-02
 309,     5.4143,     14.066,    7.815304e-02
 310,     5.4054,     15.000,    3.062550e-02
 311,     5.3984,      7.903,    3.349124e-02
 312,     5.3936,      7.531,    3.579240e-02
 313,     5.3802,     15.000,    7.787933e-02
 314,     5.3693,     15.000,    1.703793e-01
 315,     5.3572,     15.000,    1.087783e-01
 316,     5.3471,     15.000,    7.247689e-02
 317,     5.3379,     15.000,    9.755123e-02
 318,     5.3294,     15.000,    9.257577e-02
 319,     5.3157,     15.000,    1.235878e-01
 320,     5.3030,     14.560,    6.271239e-02
 321,     5.2948,     15.000,    1.463186e-01
 322,     5.2850,     15.000,    1.164113e-01
 323,     5.2732,     15.000,    1.056378e-01
 324,     5.2560,      7.549,    5.901771e-02
 325,     5.2495,     10.135,    8.060610e-02
 326,     5.2458,      4.031,    8.337141e-03
 327,     5.2441,     13.459,    3.894025e-02
 328,     5.2348,      4.220,    1.664872e-02
 329,     5.2301,      9.011,    2.783006e-02
 330,     5.2245,      9.065,    7.772941e-02
 331,     5.2108,     12.264,    6.857302e-02
 332,     5.2048,     12.286,    4.613661e-02
 333,     5.1984,      7.884,    3.836425e-02
 334,     5.1910,      8.638,    3.358698e-02
 335,     5.1847,     15.000,    9.293407e-02
 336,     5.1725,     14.780,    4.845008e-02
 337,     5.1656,     13.465,    5.613259e-02
 338,     5.1499,     15.000,    6.092056e-02
 339,     5.1423,     15.000,    9.765751e-02
 340,     5.1315,     15.000,    8.643586e-02
 341,     5.1172,     15.000,    8.762905e-02
 342,     5.1095,      4.439,    3.187653e-02
 343,     5.1030,      6.210,    4.214274e-02
 344,     5.0952,      9.950,    6.842344e-02
 345,     5.0843,     11.581,    4.083683e-02
 346,     5.0709,     15.000,    6.539533e-02
 347,     5.0654,     15.000,    5.073523e-02
 348,     5.0574,     13.134,    9.628188e-02
 349,     5.0505,     13.260,    8.172802e-02
 350,     5.0435,     10.046,    1.081082e-01
 351,     5.0397,     10.337,    1.308542e-01
 352,     5.0261,     15.000,    2.798502e-01
 353,     5.0074,     15.000,    4.365576e-02
 354,     4.9945,     15.000,    9.197172e-02
 355,     4.9845,      8.319,    5.350311e-02
 356,     4.9769,     15.000,    8.349884e-02
 357,     4.9621,     15.000,    6.717400e-02
 358,     4.9541,     15.000,    7.024381e-02
 359,     4.9449,     15.000,    8.310234e-02
 360,     4.9296,     14.818,    5.300502e-02
 361,     4.9174,     15.000,    7.365166e-02
 362,     4.9047,     15.000,    8.701534e-02
 363,     4.8907,     15.000,    7.164606e-02
 364,     4.8799,     15.000,    1.133419e-01
 365,     4.8686,     15.000,    7.668602e-02
 366,     4.8569,     14.242,    9.593224e-02
 367,     4.8499,     15.000,    7.569221e-02
 368,     4.8422,     15.000,    9.083498e-02
 369,     4.8245,     15.000,    1.425154e+00
 370,     4.8155,     15.000,    1.459097e+00
 371,     4.8065,     15.000,    1.383321e+00
 372,     4.7978,     15.000,    1.338736e+00
 373,     4.7897,     15.000,    1.559780e+00
 374,     4.7744,     15.000,    1.819610e+00
 375,     4.7669,     15.000,    1.571313e+00
 376,     4.7592,     15.000,    1.405162e+00
 377,     4.7516,     15.000,    1.375650e+00
 378,     4.7438,     15.000,    1.388332e+00
 379,     4.7309,     15.000,    1.678120e-01
 380,     4.7112,     15.000,    1.062953e-01
 381,     4.6931,     15.000,    1.026301e-01
 382,     4.6783,     15.000,    9.879202e-02
 383,     4.6669,     15.000,    1.181687e-01
 384,     4.6458,      5.729,    4.645472e-02
 385,     4.6392,      6.477,    2.415379e-02
 386,     4.6322,      6.949,    2.413366e-02
 387,     4.6227,     15.000,    1.067797e-01
 388,     4.6120,     15.000,    8.315148e-02
 389,     4.6032,     15.000,    1.344135e-01
 390,     4.5743,     15.000,    1.193911e-01
 391,     4.5564,     15.000,    1.373495e-01
 392,     4.5360,     15.000,    1.142389e-01
 393,     4.5213,     15.000,    1.185628e-01
 394,     4.5111,     15.000,    1.186290e-01
 395,     4.4967,      4.994,    2.675398e-02
 396,     4.4926,     14.294,    7.414672e-02
 397,     4.4806,     12.182,    7.414485e-02
 398,     4.4722,     12.584,    4.581083e-02
 399,     4.4608,     13.923,    7.829480e-02
 400,     4.4457,     15.000,    9.577947e-02
 401,     4.4315,     15.000,    1.162113e-01
 402,     4.3888,     15.000,    1.124648e-01
 403,     4.3715,     15.000,    1.582822e-01
 404,     4.3559,     15.000,    1.174861e-01
 405,     4.3419,     15.000,    1.243115e-01
 406,     4.3279,     15.000,    6.239038e-02
 407,     4.3150,     12.682,    3.022255e-02
 408,     4.3049,     14.623,    5.148071e-02
 409,     4.2994,      9.016,    5.007840e-02
 410,     4.2918,     13.588,    7.130823e-02
 411,     4.2826,     15.000,    1.227846e-01
 412,     4.2661,     15.000,    1.041017e-01
 413,     4.2552,     15.000,    5.850869e-02
 414,     4.2434,     15.000,    7.442620e-02
 415,     4.2305,     15.000,    1.061225e-01
 416,     4.2107,     15.000,    7.811986e-02
 417,     4.1971,     15.000,    1.077623e-01
 418,     4.1852,     15.000,    7.551819e-02
 419,     4.1700,     14.907,    7.268196e-02
 420,     4.1628,      0.837,    8.961379e-03
 421,     4.1580,     14.473,    5.065539e-02
 422,     4.1494,      5.632,    3.585967e-02
 423,     4.1427,     15.000,    1.015361e-01
 424,     4.1331,     15.000,    4.247914e-02
 425,     4.1248,     15.000,    1.120698e-01
 426,     4.1170,     15.000,    8.882924e-02
 427,     4.1032,     15.000,    1.090225e-01
 428,     4.0862,     15.000,    9.943952e-02
 429,     4.0756,      0.660,    1.021535e-02
 430,     4.0627,      7.000,    1.136204e-01
 431,     4.0594,      7.522,    9.379432e-02
 432,     4.0558,     11.323,    3.335493e-01
 433,     4.0505,     12.143,    4.668237e-01
