index,   freq_ppm,   decay_hz, amplitude
   1,     8.9557,     15.000,    1.335065e-01
   2,     8.9351,     15.000,    1.315545e-01
   3,     8.9152,     15.000,    1.124022e-01
   4,     8.8984,     15.000,    1.121405e-01
   5,     8.8818,     15.000,    1.230083e-01
   6,     8.8665,     15.000,    1.310874e-01
   7,     8.8545,     15.000,    1.423787e-01
   8,     8.8462,     13.397,    4.195248e-02
   9,     8.8395,     10.326,    9.311404e-02
  10,     8.8317,      8.340,    4.268214e-02
  11,     8.8281,     13.690,    7.291568e-02
  12,     8.8161,      7.622,    3.913112e-02
  13,     8.8081,     15.000,    1.079404e-01
  14,     8.7982,     15.000,    8.188868e-02
  15,     8.7763,     15.000,    9.404614e-02
  16,     8.7671,     13.555,    8.450862e-02
  17,     8.7555,     15.000,    1.439211e-01
  18,     8.7444,     15.000,    8.776663e-02
  19,     8.7338,     15.000,    1.362946e-01
  20,     8.7184,     15.000,    1.579387e-01
  21,     8.7076,     15.000,    1.059090e-01
  22,     8.6958,     15.000,    1.293885e-01
  23,     8.6685,     15.000,    1.573256e-01
  24,     8.6590,     15.000,    9.504957e-02
  25,     8.6433,     12.930,    9.464567e-02
  26,     8.6361,      9.996,    7.545672e-02
  27,     8.6313,     11.792,    3.691736e-02
  28,     8.6247,     15.000,    1.121595e-01
  29,     8.6198,      9.426,    5.601574e-02
  30,     8.6140,      7.829,    4.744750e-02
  31,     8.6008,     11.323,    4.237941e-02
  32,     8.5940,      7.091,    5.445175e-02
  33,     8.5893,      4.397,    4.149568e-02
  34,     8.5819,      3.539,    2.864577e-02
  35,     8.5714,     15.000,    7.101506e-02
  36,     8.5644,     14.173,    9.196658e-02
  37,     8.5544,     14.161,    7.643750e-02
  38,     8.5435,     14.945,    1.554192e-01
  39,     8.5330,     15.000,    1.378408e-01
  40,     8.5200,     15.000,    1.418354e-01
  41,     8.5015,     15.000,    1.286838e-01
  42,     8.4861,     15.000,    8.968666e-02
  43,     8.4741,     15.000,    1.059993e-01
  44,     8.4466,      2.454,    1.095448e+00
  45,     8.4454,      2.748,    1.764559e+00
  46,     8.4444,      6.909,    2.462187e+00
  47,     8.4344,     15.000,    3.545837e-01
  48,     8.4088,     15.000,    2.923439e-01
  49,     8.3814,     15.000,    2.806707e-01
  50,     8.3553,     15.000,    2.128257e-01
  51,     8.3433,     11.366,    6.409522e-02
  52,     8.3378,      5.436,    3.681754e-02
  53,     8.3271,     15.000,    4.821425e-02
  54,     8.3213,     15.000,    6.532256e-02
  55,     8.3113,     12.336,    6.113124e-02
  56,     8.2989,     11.115,    4.934855e-02
  57,     8.2908,      6.318,    2.974946e-02
  58,     8.2843,      6.280,    2.727147e-02
  59,     8.2781,      6.907,    2.788229e-02
  60,     8.2728,      9.529,    5.691423e-02
  61,     8.2663,      5.126,    2.175534e-02
  62,     8.2583,      9.099,    4.676195e-02
  63,     8.2495,      6.909,    3.352050e-02
  64,     8.2415,     15.000,    9.356841e-02
  65,     8.2304,      8.374,    3.480665e-02
  66,     8.2196,     15.000,    1.325087e-01
  67,     8.1926,     14.645,    8.058650e-02
  68,     8.1773,     12.487,    7.999165e-02
  69,     8.1721,      6.753,    2.652969e-02
  70,     8.1696,     15.000,    6.545433e-03
  71,     8.1649,      6.435,    3.594812e-02
  72,     8.1553,     15.000,    1.089753e-01
  73,     8.1409,     11.867,    1.040286e-01
  74,     8.1279,      5.672,    1.884205e-02
  75,     8.1185,     15.000,    9.657460e-02
  76,     8.1092,     15.000,    6.712417e-02
  77,     8.0981,     15.000,    1.046473e-01
  78,     8.0810,     15.000,    5.601333e-02
  79,     8.0718,     15.000,    9.248956e-02
  80,     8.0609,     14.382,    8.620381e-02
  81,     8.0519,     14.095,    5.484924e-02
  82,     8.0370,     13.131,    7.514173e-02
  83,     8.0242,     13.765,    6.671512e-02
  84,     8.0181,     15.000,    1.040006e-01
  85,     8.0102,     14.291,    6.608150e-02
  86,     8.0037,      4.756,    2.067637e-02
  87,     7.9980,      7.315,    4.969361e-02
  88,     7.9926,      8.824,    4.437748e-02
  89,     7.9868,      8.989,    3.255556e-02
  90,     7.9784,      8.664,    5.096854e-02
  91,     7.9724,      7.795,    2.550371e-02
  92,     7.9594,     15.000,    8.139511e-02
  93,     7.9500,     14.697,    9.853148e-02
  94,     7.9398,     13.204,    6.641575e-02
  95,     7.9286,     15.000,    1.008401e-01
  96,     7.9101,     15.000,    1.087820e-01
  97,     7.8992,      7.014,    7.081957e-02
  98,     7.8928,     10.261,    6.414262e-02
  99,     7.8836,     13.515,    6.173562e-02
 100,     7.8740,     15.000,    1.134048e-01
 101,     7.8627,     14.261,    4.900834e-02
 102,     7.8531,      7.919,    4.020798e-02
 103,     7.8502,      7.716,    4.614415e-02
 104,     7.8426,      8.144,    5.009141e-02
 105,     7.8388,      8.166,    4.934617e-02
 106,     7.8233,     12.606,    5.619120e-02
 107,     7.8151,      8.798,    7.229670e-02
 108,     7.8109,      6.656,    3.910902e-02
 109,     7.8031,     11.338,    6.670403e-02
 110,     7.7988,     12.310,    5.604546e-02
 111,     7.7901,      9.937,    4.752051e-02
 112,     7.7879,      7.258,    3.754985e-02
 113,     7.7831,      8.231,    6.762356e-02
 114,     7.7763,      9.112,    6.275677e-02
 115,     7.7694,      7.631,    4.842551e-02
 116,     7.7545,     15.000,    1.408159e-01
 117,     7.7494,      4.936,    3.093423e-02
 118,     7.7437,     12.924,    1.346137e-02
 119,     7.7383,     15.000,    9.694476e-02
 120,     7.7248,     14.162,    1.030246e-01
 121,     7.7163,     15.000,    8.779237e-02
 122,     7.7066,     15.000,    1.210662e-01
 123,     7.6910,     15.000,    9.286557e-02
 124,     7.6824,     14.491,    8.499864e-02
 125,     7.6724,     15.000,    1.062856e-01
 126,     7.6582,     15.000,    9.586727e-02
 127,     7.6394,     15.000,    1.211678e-01
 128,     7.6250,     15.000,    1.187024e-01
 129,     7.6151,      4.632,    3.106887e-02
 130,     7.6079,     15.000,    6.497746e-02
 131,     7.5925,     15.000,    1.153613e-01
 132,     7.5813,      3.845,    2.587258e-02
 133,     7.5692,      5.003,    2.694494e-02
 134,     7.5620,     14.282,    1.082739e-01
 135,     7.5521,     15.000,    8.674049e-02
 136,     7.5434,      2.947,    1.838032e-02
 137,     7.5337,     15.000,    7.063998e-02
 138,     7.5166,     12.260,    7.435854e-02
 139,     7.5126,      3.949,    2.137025e-02
 140,     7.5063,     14.320,    9.438081e-02
 141,     7.4920,     15.000,    9.259435e-02
 142,     7.4812,     13.633,    9.265268e-02
 143,     7.4726,      1.552,    1.182082e-02
 144,     7.4672,     15.000,    1.161142e-01
 145,     7.4503,     15.000,    1.493511e-01
 146,     7.4378,     15.000,    8.649920e-02
 147,     7.4178,     15.000,    1.320472e-01
 148,     7.4029,     15.000,    7.125872e-02
 149,     7.3901,     15.000,    1.432447e-01
 150,     7.3728,     15.000,    1.481112e-01
 151,     7.3585,     15.000,    1.266041e-01
 152,     7.3483,     15.000,    1.098795e-01
 153,     7.3372,     15.000,    1.048658e-01
 154,     7.3234,     15.000,    1.444237e-01
 155,     7.3029,     15.000,    1.111965e-01
 156,     7.2901,     15.000,    9.614967e-02
 157,     7.2717,     15.000,    1.386033e-01
 158,     7.2591,     14.189,    8.812895e-02
 159,     7.2536,     11.603,    6.695399e-02
 160,     7.2421,     15.000,    1.057130e-01
 161,     7.2369,      8.747,    2.891824e-02
 162,     7.2319,     10.984,    8.892702e-02
 163,     7.2226,     14.597,    9.126972e-02
 164,     7.2126,     15.000,    6.293648e-02
 165,     7.2021,      9.799,    5.371564e-02
 166,     7.1930,     15.000,    8.566420e-02
 167,     7.1815,     15.000,    1.087228e-01
 168,     7.1699,     15.000,    1.070801e-01
 169,     7.1545,     15.000,    9.759740e-02
 170,     7.1435,     15.000,    7.682250e-02
 171,     7.1277,     15.000,    8.172033e-02
 172,     7.1121,     15.000,    1.009994e-01
 173,     7.0912,     15.000,    1.098520e-01
 174,     7.0817,     11.104,    2.032416e-01
 175,     7.0690,     15.000,    1.167894e-01
 176,     7.0619,     15.000,    7.329931e-02
 177,     7.0508,     14.591,    8.075243e-02
 178,     7.0353,     15.000,    7.419241e-02
 179,     7.0211,     15.000,    1.227922e-01
 180,     7.0072,     15.000,    1.103950e-01
 181,     6.9990,     15.000,    7.310113e-02
 182,     6.9915,     11.860,    3.938317e-02
 183,     6.9826,     12.392,    9.650233e-02
 184,     6.9633,     15.000,    1.399342e-01
 185,     6.9529,     15.000,    1.231318e-01
 186,     6.9370,     15.000,    1.276836e-01
 187,     6.9246,     14.942,    7.470559e-02
 188,     6.9176,     14.864,    1.020909e-01
 189,     6.9074,      9.862,    6.089129e-02
 190,     6.8957,     13.892,    5.612225e-02
 191,     6.8848,     15.000,    9.831867e-02
 192,     6.8739,     15.000,    1.294063e-01
 193,     6.8634,     15.000,    7.843093e-02
 194,     6.8562,     15.000,    1.200800e-01
 195,     6.8394,     15.000,    1.009767e-01
 196,     6.8282,     13.840,    7.801958e-02
 197,     6.8178,     12.392,    9.285300e-02
 198,     6.8053,     15.000,    7.909668e-02
 199,     6.7968,     15.000,    1.066417e-01
 200,     6.7846,      9.673,    5.825217e-02
 201,     6.7795,      8.508,    2.840600e-02
 202,     6.7752,      8.633,    5.573644e-02
 203,     6.7669,     14.063,    1.077980e-01
 204,     6.7592,     13.102,    4.762713e-02
 205,     6.7478,     10.171,    6.981138e-02
 206,     6.7364,     15.000,    1.411100e-01
 207,     6.7262,     15.000,    1.254820e-01
 208,     6.7154,     15.000,    8.275082e-02
 209,     6.7036,     15.000,    8.256841e-02
 210,     6.6904,     15.000,    1.148297e-01
 211,     6.6805,     14.991,    6.193950e-02
 212,     6.6737,      2.326,    1.431682e-02
 213,     6.6671,     13.084,    7.422400e-02
 214,     6.6617,     12.408,    3.561231e-02
 215,     6.6537,      9.711,    4.660098e-02
 216,     6.6437,     15.000,    1.082073e-01
 217,     6.6325,     15.000,    8.721665e-02
 218,     6.6228,     15.000,    1.245124e-01
 219,     6.6057,     15.000,    1.344904e-01
 220,     6.5872,     15.000,    1.198036e-01
 221,     6.5706,     15.000,    1.090394e-01
 222,     6.5582,     15.000,    1.026384e-01
 223,     6.5480,     15.000,    1.023644e-01
 224,     6.5387,     14.576,    7.905295e-02
 225,     6.5222,     15.000,    1.083647e-01
 226,     6.5096,     14.095,    1.001056e-01
 227,     6.5035,     14.815,    7.289112e-02
 228,     6.4882,     15.000,    1.070847e-01
 229,     6.4722,     14.984,    8.802786e-02
 230,     6.4618,     15.000,    1.041028e-01
 231,     6.4495,     15.000,    1.025095e-01
 232,     6.4384,     15.000,    1.076805e-01
 233,     6.4131,     14.644,    8.327036e-02
 234,     6.4022,     14.479,    9.638622e-02
 235,     6.3823,     15.000,    1.103743e-01
 236,     6.3643,     15.000,    1.873802e-01
 237,     6.3544,     15.000,    1.349398e-01
 238,     6.3409,     15.000,    1.178901e-01
 239,     6.3321,     14.916,    8.987325e-02
 240,     6.3226,     15.000,    1.484259e-01
 241,     6.3154,     15.000,    9.705990e-02
 242,     6.3085,     10.213,    6.472365e-02
 243,     6.2927,     12.937,    7.143098e-02
 244,     6.2827,     13.090,    5.722516e-02
 245,     6.2776,     11.944,    7.451845e-02
 246,     6.2723,      9.625,    5.048890e-02
 247,     6.2647,     11.576,    4.551018e-02
 248,     6.2591,     15.000,    7.617514e-02
 249,     6.2507,     11.688,    4.258122e-02
 250,     6.2424,     14.231,    9.232937e-02
 251,     6.2245,     14.811,    1.171257e-01
 252,     6.2155,     15.000,    1.419905e-01
 253,     6.2009,     15.000,    1.252490e-01
 254,     6.1880,     15.000,    1.318196e-01
 255,     6.1793,     14.972,    8.685062e-02
 256,     6.1711,      7.822,    4.940465e-02
 257,     6.1651,      7.656,    2.214510e-02
 258,     6.1635,      5.415,    2.473888e-02
 259,     6.1582,      4.163,    2.775164e-02
 260,     6.1472,     15.000,    1.136388e-01
 261,     6.1389,     15.000,    1.135209e-01
 262,     6.1268,     15.000,    1.421433e-01
 263,     6.1166,     10.323,    8.088287e-02
 264,     6.1100,     13.129,    4.960873e-02
 265,     6.0931,     15.000,    8.842930e-02
 266,     6.0862,     14.697,    7.614851e-02
 267,     6.0769,     15.000,    9.028198e-02
 268,     6.0686,     15.000,    1.172690e-01
 269,     6.0537,     15.000,    1.009780e-01
 270,     6.0386,     15.000,    6.704500e-02
 271,     6.0302,     15.000,    9.525762e-02
 272,     6.0143,     15.000,    1.089202e-01
 273,     6.0013,     15.000,    1.022429e-01
 274,     5.9895,      8.464,    8.273137e-02
 275,     5.9794,     15.000,    1.019943e-01
 276,     5.9602,     15.000,    1.379105e-01
 277,     5.9378,     15.000,    1.312049e-01
 278,     5.9201,     14.807,    1.428835e-01
 279,     5.9025,     15.000,    1.081868e-01
 280,     5.8923,     15.000,    1.036931e-01
 281,     5.8768,     15.000,    8.464816e-02
 282,     5.8539,     14.806,    1.092768e-01
 283,     5.8438,     15.000,    1.237863e-01
 284,     5.8312,     14.688,    8.252242e-02
 285,     5.8159,     15.000,    8.159212e-02
 286,     5.8056,     14.939,    9.956951e-02
 287,     5.7890,     15.000,    1.047748e-01
 288,     5.7692,     15.000,    9.583889e-02
 289,     5.7593,     15.000,    6.952575e-02
 290,     5.7461,     15.000,    1.306594e-01
 291,     5.7372,     13.802,    6.970542e-02
 292,     5.7296,     14.878,    1.128380e-01
 293,     5.7203,     15.000,    6.542087e-02
 294,     5.7093,     15.000,    6.302354e-02
 295,     5.7034,     14.936,    8.628029e-02
 296,     5.6863,     10.382,    9.925634e-02
 297,     5.6804,     15.000,    7.802263e-02
 298,     5.6690,     10.870,    4.092168e-02
 299,     5.6601,      7.941,    7.606918e-02
 300,     5.6531,     15.000,    7.471941e-02
 301,     5.6424,     15.000,    1.035799e-01
 302,     5.6368,     15.000,    1.036227e-01
 303,     5.6154,     15.000,    1.015906e-01
 304,     5.6071,     15.000,    8.869850e-02
 305,     5.5930,     13.445,    7.230662e-02
 306,     5.5841,     15.000,    8.209533e-02
 307,     5.5762,     15.000,    9.540075e-02
 308,     5.5611,     15.000,    8.054429e-02
 309,     5.5426,     15.000,    9.089249e-02
 310,     5.5328,     15.000,    6.159791e-02
 311,     5.5239,     15.000,    7.605020e-02
 312,     5.5103,     10.903,    4.806124e-02
 313,     5.5038,      9.403,    3.642293e-02
 314,     5.4958,     15.000,    8.842013e-02
 315,     5.4845,     11.070,    8.099344e-02
 316,     5.4734,     15.000,    1.167639e-01
 317,     5.4603,     15.000,    1.587671e-01
 318,     5.4465,     15.000,    6.876996e-02
 319,     5.4382,     12.795,    6.494483e-02
 320,     5.4254,     15.000,    9.301756e-02
 321,     5.4178,     15.000,    7.588248e-02
 322,     5.4085,     10.410,    6.650671e-02
 323,     5.4025,     11.988,    3.059047e-02
 324,     5.3929,     11.031,    6.597745e-02
 325,     5.3869,     11.562,    6.814052e-02
 326,     5.3805,      8.953,    6.078548e-02
 327,     5.3725,     15.000,    9.127522e-02
 328,     5.3652,     15.000,    6.303792e-02
 329,     5.3594,     11.260,    8.395039e-02
 330,     5.3458,     15.000,    8.163362e-02
 331,     5.3397,     15.000,    1.016020e-01
 332,     5.3264,     15.000,    1.320163e-01
 333,     5.3127,      8.884,    4.027939e-02
 334,     5.3071,      8.868,    8.933610e-02
 335,     5.2984,      9.606,    7.056248e-02
 336,     5.2926,      5.483,    3.721517e-02
 337,     5.2850,     15.000,    6.518497e-02
 338,     5.2767,     15.000,    9.842510e-02
 339,     5.2590,     15.000,    5.388223e-02
 340,     5.2520,     15.000,    7.684444e-02
 341,     5.2354,     15.000,    7.093600e-02
 342,     5.2263,     14.598,    5.560287e-02
 343,     5.2095,     15.000,    1.298410e-01
 344,     5.2011,     15.000,    6.547627e-02
 345,     5.1929,     11.997,    5.223726e-02
 346,     5.1828,      9.955,    6.866802e-02
 347,     5.1736,     15.000,    1.415210e-01
 348,     5.1622,     15.000,    1.155844e-01
 349,     5.1575,     10.247,    5.729571e-02
 350,     5.1469,     14.977,    9.348967e-02
 351,     5.1344,      5.932,    2.162433e-02
 352,     5.1292,     10.462,    4.443257e-02
 353,     5.1231,      9.378,    5.183173e-02
 354,     5.1161,      9.550,    5.744962e-02
 355,     5.0952,     15.000,    7.892732e-02
 356,     5.0843,     15.000,    7.597262e-02
 357,     5.0760,     14.583,    7.535814e-02
 358,     5.0660,      7.991,    6.095875e-02
 359,     5.0540,     15.000,    1.140757e-01
 360,     5.0489,      9.443,    7.002264e-02
 361,     5.0406,     15.000,    7.540917e-02
 362,     5.0291,     15.000,    9.328496e-02
 363,     5.0147,     15.000,    1.500301e-01
 364,     4.9984,     13.548,    1.042140e-01
 365,     4.9864,     15.000,    9.657187e-02
 366,     4.9701,     15.000,    1.048347e-01
 367,     4.9601,     13.950,    6.215962e-02
 368,     4.9502,     15.000,    8.827848e-02
 369,     4.9438,      6.177,    3.426854e-02
 370,     4.9349,     13.119,    8.848490e-02
 371,     4.9279,     13.582,    8.468982e-02
 372,     4.9222,      5.183,    3.495948e-02
 373,     4.9172,     14.394,    1.042916e-01
 374,     4.9068,     15.000,    9.521038e-02
 375,     4.8960,      6.497,    3.309291e-02
 376,     4.8907,     12.801,    7.454469e-02
 377,     4.8836,     11.780,    7.893036e-02
 378,     4.8703,     11.001,    7.049826e-02
 379,     4.8633,     11.127,    9.358422e-02
 380,     4.8586,     14.552,    1.104900e-01
 381,     4.8490,     15.000,    1.110297e-01
 382,     4.8367,     15.000,    1.013881e-01
 383,     4.8293,     10.875,    6.989376e-02
 384,     4.8245,      6.963,    4.440914e-02
 385,     4.8193,     15.000,    6.508315e+00
 386,     4.8059,     15.000,    6.024783e+00
 387,     4.7920,     15.000,    6.625111e+00
 388,     4.7704,     15.000,    6.643624e+00
 389,     4.7566,     15.000,    6.105757e+00
 390,     4.7428,     15.000,    6.146142e+00
 391,     4.7297,     15.000,    6.391254e+00
 392,     4.7176,     15.000,    1.190596e-01
 393,     4.7080,     15.000,    1.202108e-01
 394,     4.6992,     12.234,    7.169499e-02
 395,     4.6873,     15.000,    1.388311e-01
 396,     4.6809,      9.723,    5.074252e-02
 397,     4.6718,     11.391,    7.853455e-02
 398,     4.6634,      3.214,    9.915148e-03
 399,     4.6583,     10.095,    6.239895e-02
 400,     4.6540,      2.208,    2.229556e-02
 401,     4.6496,     10.935,    6.160748e-02
 402,     4.6329,     12.781,    6.556942e-02
 403,     4.6237,      9.262,    4.069168e-02
 404,     4.6155,     14.359,    7.850238e-02
 405,     4.6102,      9.851,    4.757595e-02
 406,     4.6022,     15.000,    6.533119e-02
 407,     4.5938,     11.388,    7.337139e-02
 408,     4.5815,     15.000,    1.070838e-01
 409,     4.5666,     15.000,    9.189084e-02
 410,     4.5546,     15.000,    1.274735e-01
 411,     4.5436,     15.000,    1.076254e-01
 412,     4.5375,      9.238,    4.558553e-02
 413,     4.5282,     15.000,    1.162313e-01
 414,     4.5114,     15.000,    1.118567e-01
 415,     4.4855,     15.000,    1.067794e-01
 416,     4.4765,     14.980,    9.155183e-02
 417,     4.4570,     15.000,    9.986260e-02
 418,     4.4453,     14.540,    8.098052e-02
 419,     4.4209,     15.000,    1.173295e-01
 420,     4.4116,      5.076,    2.191373e-02
 421,     4.4060,     11.665,    9.691373e-02
 422,     4.3978,     14.450,    9.706400e-02
 423,     4.3944,     15.000,    8.990749e-03
 424,     4.3839,     14.979,    7.534841e-02
 425,     4.3779,      9.962,    3.649260e-02
 426,     4.3665,     15.000,    1.082886e-01
 427,     4.3552,     15.000,    6.529226e-02
 428,     4.3399,     14.803,    1.172243e-01
 429,     4.3222,     15.000,    8.313816e-02
 430,     4.3111,     15.000,    1.056032e-01
 431,     4.3006,     15.000,    7.756200e-02
 432,     4.2919,     13.451,    1.710259e-01
 433,     4.2809,     15.000,    1.096374e-01
