index,   freq_ppm,   decay_hz, amplitude
   1,     8.9886,     15.000,    1.219829e-01
   2,     8.9638,     15.000,    1.032878e-01
   3,     8.9316,      5.676,    2.114119e-01
   4,     8.9289,     13.150,    1.207586e+00
   5,     8.9148,     15.000,    8.649341e-02
   6,     8.9018,     15.000,    1.052999e-01
   7,     8.8925,     11.389,    6.635392e-02
   8,     8.8869,      9.234,    4.708293e-02
   9,     8.8816,     13.659,    5.718365e-02
  10,     8.8736,      2.040,    1.411760e-02
  11,     8.8691,     14.164,    8.833539e-02
  12,     8.8570,     15.000,    1.290660e-01
  13,     8.8439,     15.000,    9.508125e-02
  14,     8.8264,     15.000,    8.000502e-02
  15,     8.8118,     15.000,    1.326070e-01
  16,     8.7951,     15.000,    1.048750e-01
  17,     8.7803,     15.000,    9.216617e-02
  18,     8.7734,     15.000,    7.577512e-02
  19,     8.7670,     15.000,    9.623769e-02
  20,     8.7590,      2.723,    1.144841e-02
  21,     8.7523,     15.000,    1.174624e-01
  22,     8.7420,      9.185,    5.619181e-02
  23,     8.7315,     15.000,    7.238261e-02
  24,     8.7076,      5.375,    1.597262e-01
  25,     8.7056,      7.850,    4.583125e-01
  26,     8.7000,     14.195,    1.136853e+00
  27,     8.6804,     15.000,    1.091905e-01
  28,     8.6641,     15.000,    1.114442e-01
  29,     8.6548,     15.000,    7.637609e-02
  30,     8.6378,     15.000,    1.084018e-01
  31,     8.6185,     15.000,    7.892884e-02
  32,     8.6031,     15.000,    1.021946e-01
  33,     8.5899,     15.000,    8.942725e-02
  34,     8.5853,      6.285,    4.373939e-02
  35,     8.5763,     15.000,    1.050129e-01
  36,     8.5692,     15.000,    5.872188e-02
  37,     8.5633,      9.056,    1.242534e-01
  38,     8.5427,     15.000,    1.245498e-01
  39,     8.5246,     15.000,    1.687072e-01
  40,     8.5079,     15.000,    1.395741e-01
  41,     8.4955,     15.000,    1.308260e-01
  42,     8.4466,      1.805,    1.209549e+00
  43,     8.4453,      1.996,    2.025398e+00
  44,     8.4439,      6.771,    3.757722e+00
  45,     8.4354,     15.000,    4.309844e-01
  46,     8.4220,     15.000,    2.713065e-01
  47,     8.4133,     15.000,    2.359695e-01
  48,     8.4004,     15.000,    2.667277e-01
  49,     8.3803,     15.000,    7.251217e-02
  50,     8.3661,     15.000,    1.163036e-01
  51,     8.3557,     15.000,    1.079498e-01
  52,     8.3457,     15.000,    7.148750e-02
  53,     8.3362,     15.000,    7.886941e-02
  54,     8.3206,     13.582,    1.672610e-01
  55,     8.3115,     15.000,    6.403215e-02
  56,     8.3007,     15.000,    1.121605e-01
  57,     8.2874,     15.000,    9.784565e-02
  58,     8.2741,      6.599,    6.178572e-02
  59,     8.2662,     15.000,    8.812844e-02
  60,     8.2454,      9.705,    4.381846e-01
  61,     8.2428,      9.068,    3.297109e-01
  62,     8.2342,     15.000,    1.072832e+00
  63,     8.2174,     15.000,    6.872404e-02
  64,     8.2097,     15.000,    8.509804e-02
  65,     8.2013,     13.031,    9.549458e-02
  66,     8.1947,      3.775,    2.315157e-02
  67,     8.1882,     12.041,    6.909414e-02
  68,     8.1722,     15.000,    1.007630e-01
  69,     8.1604,     15.000,    1.305319e-01
  70,     8.1420,     15.000,    1.195762e-01
  71,     8.1322,     15.000,    9.776425e-02
  72,     8.1247,     15.000,    8.722695e-02
  73,     8.1111,     15.000,    1.319311e-01
  74,     8.0894,     15.000,    7.031947e-02
  75,     8.0761,     15.000,    8.773898e-02
  76,     8.0576,     15.000,    1.531729e-01
  77,     8.0287,     15.000,    7.919654e-02
  78,     8.0192,     15.000,    7.957883e-02
  79,     8.0116,     11.227,    6.457158e-02
  80,     8.0007,     13.161,    7.294522e-02
  81,     7.9902,     15.000,    9.411862e-02
  82,     7.9818,     15.000,    5.817631e-02
  83,     7.9650,     15.000,    1.207610e-01
  84,     7.9423,     15.000,    1.461651e-01
  85,     7.9270,     15.000,    8.403774e-02
  86,     7.9136,     15.000,    1.100786e-01
  87,     7.8890,     15.000,    9.678843e-02
  88,     7.8776,     15.000,    8.113974e-02
  89,     7.8691,     15.000,    1.106326e-01
  90,     7.8591,     15.000,    1.066584e-01
  91,     7.8481,     15.000,    1.669572e-01
  92,     7.8357,     15.000,    1.471285e-01
  93,     7.8223,     15.000,    1.445683e-01
  94,     7.8090,     15.000,    1.630975e-01
  95,     7.7963,     15.000,    1.554566e-01
  96,     7.7841,     11.474,    8.052700e-02
  97,     7.7769,     15.000,    1.206528e-01
  98,     7.7658,     15.000,    1.246074e-01
  99,     7.7550,     15.000,    9.751195e-02
 100,     7.7454,     15.000,    1.321159e-01
 101,     7.7286,     15.000,    1.237884e-01
 102,     7.7155,     15.000,    1.288939e-01
 103,     7.7043,     15.000,    1.197617e-01
 104,     7.6861,     15.000,    1.554701e-01
 105,     7.6766,     14.812,    7.563412e-02
 106,     7.6669,     15.000,    1.471553e-01
 107,     7.6456,     15.000,    1.024242e-01
 108,     7.6309,     15.000,    1.191467e-01
 109,     7.6193,     15.000,    9.698284e-02
 110,     7.5935,      8.619,    5.223947e-01
 111,     7.5875,      8.522,    4.380023e-01
 112,     7.5838,      9.765,    6.259450e-01
 113,     7.5773,     12.322,    7.120596e-01
 114,     7.5366,     15.000,    1.492424e-01
 115,     7.5110,     15.000,    9.786960e-02
 116,     7.5023,      9.856,    7.814383e-02
 117,     7.4920,     15.000,    8.107761e-02
 118,     7.4839,     15.000,    3.588428e-02
 119,     7.4730,     15.000,    1.135770e-01
 120,     7.4620,     15.000,    1.170308e-01
 121,     7.4490,     15.000,    1.566441e-01
 122,     7.4259,     15.000,    1.152297e-01
 123,     7.3955,     15.000,    1.185336e-01
 124,     7.3744,     15.000,    1.228094e-01
 125,     7.3600,     15.000,    1.290489e-01
 126,     7.3472,     15.000,    1.257149e-01
 127,     7.3362,     15.000,    6.742222e-02
 128,     7.3281,     14.825,    5.676048e-02
 129,     7.3232,     15.000,    6.116954e-02
 130,     7.3161,      5.243,    3.116513e-02
 131,     7.3028,     15.000,    9.546938e-02
 132,     7.2923,     15.000,    8.999839e-02
 133,     7.2841,     15.000,    6.854292e-02
 134,     7.2679,     15.000,    1.282186e-01
 135,     7.2572,     12.468,    6.251273e-02
 136,     7.2449,     10.626,    5.699644e-02
 137,     7.2380,     14.375,    8.681966e-02
 138,     7.2287,     15.000,    8.671433e-02
 139,     7.2174,     15.000,    8.540270e-02
 140,     7.2016,     12.628,    7.735314e-02
 141,     7.1854,     14.480,    1.055905e-01
 142,     7.1741,     15.000,    6.154612e-02
 143,     7.1680,     15.000,    6.423946e-02
 144,     7.1577,      9.285,    5.149565e-02
 145,     7.1510,      9.595,    3.843511e-02
 146,     7.1437,     15.000,    9.617998e-02
 147,     7.1302,     15.000,    7.598379e-02
 148,     7.1123,     15.000,    7.577538e-02
 149,     7.1053,     15.000,    5.453758e-02
 150,     7.0887,     15.000,    8.380317e-02
 151,     7.0791,     11.300,    1.706952e-01
 152,     7.0696,     15.000,    7.054473e-02
 153,     7.0615,     15.000,    9.920353e-02
 154,     7.0482,     15.000,    1.108366e-01
 155,     7.0375,      8.256,    6.179418e-02
 156,     7.0299,     15.000,    1.084777e-01
 157,     7.0207,     15.000,    6.392446e-02
 158,     6.9967,     15.000,    1.007829e-01
 159,     6.9836,     15.000,    1.002223e-01
 160,     6.9713,     15.000,    9.804621e-02
 161,     6.9490,     15.000,    9.498943e-02
 162,     6.9391,     15.000,    8.738477e-02
 163,     6.9226,     15.000,    9.420580e-02
 164,     6.9120,     15.000,    8.230793e-02
 165,     6.9030,     11.777,    5.797598e-02
 166,     6.8926,     15.000,    6.376337e-02
 167,     6.8853,     15.000,    5.060089e-02
 168,     6.8759,     15.000,    9.912561e-02
 169,     6.8655,      7.842,    4.931216e-02
 170,     6.8601,      3.401,    2.220987e-02
 171,     6.8532,      8.881,    6.321325e-02
 172,     6.8458,     15.000,    5.309322e-02
 173,     6.8405,     15.000,    8.579471e-02
 174,     6.8354,      0.661,    3.573595e-03
 175,     6.8263,     15.000,    8.843549e-02
 176,     6.8188,     15.000,    1.302776e-01
 177,     6.8064,     15.000,    1.100316e-01
 178,     6.7867,     15.000,    1.033594e-01
 179,     6.7739,     15.000,    1.060892e-01
 180,     6.7650,     15.000,    1.164361e-01
 181,     6.7542,     15.000,    8.680848e-02
 182,     6.7433,     15.000,    1.035905e-01
 183,     6.7309,     15.000,    1.219421e-01
 184,     6.7189,     15.000,    1.013909e-01
 185,     6.7005,     15.000,    1.184098e-01
 186,     6.6824,     15.000,    1.576607e-01
 187,     6.6613,     15.000,    1.435004e-01
 188,     6.6485,     15.000,    8.465116e-02
 189,     6.6329,     15.000,    1.360034e-01
 190,     6.6115,     15.000,    1.424962e-01
 191,     6.5913,     15.000,    1.313371e-01
 192,     6.5732,     15.000,    1.222305e-01
 193,     6.5639,     15.000,    1.291609e-01
 194,     6.5492,     15.000,    1.131610e-01
 195,     6.5390,     15.000,    1.217912e-01
 196,     6.5204,     15.000,    8.396156e-02
 197,     6.5044,     15.000,    1.078615e-01
 198,     6.4921,     10.704,    2.651849e-02
 199,     6.4860,     15.000,    9.607355e-02
 200,     6.4764,     15.000,    9.221934e-02
 201,     6.4660,     15.000,    5.411818e-02
 202,     6.4552,     13.892,    6.265600e-02
 203,     6.4440,     15.000,    8.555142e-02
 204,     6.4387,      5.572,    2.749117e-02
 205,     6.4330,      1.930,    1.036226e-02
 206,     6.4251,      7.570,    5.389978e-02
 207,     6.4203,      9.270,    5.250708e-02
 208,     6.4180,      5.604,    3.042191e-02
 209,     6.4106,      7.410,    3.251811e-02
 210,     6.4036,     15.000,    3.910237e-02
 211,     6.3956,     14.712,    9.902132e-02
 212,     6.3880,     12.191,    6.780419e-02
 213,     6.3631,     15.000,    2.358979e-01
 214,     6.3444,     15.000,    8.546547e-02
 215,     6.3347,     15.000,    1.153290e-01
 216,     6.3206,     15.000,    7.489561e-02
 217,     6.3093,     15.000,    9.041794e-02
 218,     6.2908,     15.000,    1.347617e-01
 219,     6.2605,     15.000,    1.002706e-01
 220,     6.2525,     15.000,    8.340144e-02
 221,     6.2429,     15.000,    8.255689e-02
 222,     6.2285,     15.000,    8.670720e-02
 223,     6.2159,     15.000,    1.283227e-01
 224,     6.1979,     15.000,    1.198576e-01
 225,     6.1899,      8.619,    4.009745e-02
 226,     6.1833,      7.151,    3.395217e-02
 227,     6.1668,     15.000,    9.853657e-02
 228,     6.1561,     15.000,    8.634657e-02
 229,     6.1451,      8.087,    4.183391e-02
 230,     6.1390,     15.000,    5.041153e-02
 231,     6.1277,     15.000,    8.055984e-02
 232,     6.0952,     15.000,    9.985482e-02
 233,     6.0860,     15.000,    7.272881e-02
 234,     6.0733,     15.000,    8.093796e-02
 235,     6.0638,     15.000,    7.275478e-02
 236,     6.0402,     15.000,    8.028568e-02
 237,     6.0311,     15.000,    1.171023e-01
 238,     6.0124,     15.000,    7.969531e-02
 239,     5.9988,     15.000,    1.210635e-01
 240,     5.9847,     15.000,    9.069180e-02
 241,     5.9750,     15.000,    7.707618e-02
 242,     5.9661,     15.000,    9.929259e-02
 243,     5.9531,     15.000,    8.342524e-02
 244,     5.9330,     15.000,    9.985010e-02
 245,     5.9181,     15.000,    1.381594e-01
 246,     5.9080,     15.000,    7.829988e-02
 247,     5.9009,     15.000,    1.006265e-01
 248,     5.8875,      7.950,    7.885324e-02
 249,     5.8799,     12.108,    9.113193e-02
 250,     5.8740,     13.776,    5.160820e-02
 251,     5.8684,      8.554,    5.154158e-02
 252,     5.8577,     12.230,    1.143541e-01
 253,     5.8480,     13.485,    5.566208e-02
 254,     5.8376,     15.000,    1.875397e-01
 255,     5.8221,     15.000,    1.129202e-01
 256,     5.8018,     15.000,    9.401175e-02
 257,     5.7941,     15.000,    1.091953e-01
 258,     5.7753,     15.000,    1.198416e-01
 259,     5.7665,      6.959,    5.342328e-02
 260,     5.7605,     11.721,    7.010087e-02
 261,     5.7496,      9.361,    7.934128e-02
 262,     5.7443,     10.355,    8.208818e-02
 263,     5.7315,     15.000,    7.243674e-02
 264,     5.7195,      8.006,    5.280059e-02
 265,     5.7136,      9.848,    4.438272e-02
 266,     5.7071,     15.000,    9.803125e-02
 267,     5.6941,     15.000,    8.839605e-02
 268,     5.6889,      6.949,    4.132665e-02
 269,     5.6766,     15.000,    7.785448e-02
 270,     5.6685,     12.541,    6.304108e-02
 271,     5.6595,     13.518,    9.031419e-02
 272,     5.6504,     15.000,    5.717443e-02
 273,     5.6362,      8.320,    4.527494e-02
 274,     5.6266,     15.000,    1.169313e-01
 275,     5.6198,     15.000,    5.477153e-02
 276,     5.6129,     15.000,    8.795811e-02
 277,     5.6019,     13.788,    7.383298e-02
 278,     5.5910,     15.000,    1.309456e-01
 279,     5.5655,     15.000,    8.488362e-02
 280,     5.5538,     15.000,    1.322296e-01
 281,     5.5450,     15.000,    1.100900e-01
 282,     5.5282,     15.000,    1.314799e-01
 283,     5.5185,     15.000,    9.134568e-02
 284,     5.5038,     15.000,    1.073009e-01
 285,     5.4945,     15.000,    1.295686e-01
 286,     5.4816,     15.000,    1.604132e-01
 287,     5.4665,     15.000,    1.134891e-01
 288,     5.4450,     15.000,    7.564934e-02
 289,     5.4368,     15.000,    1.020484e-01
 290,     5.4208,     15.000,    6.656449e-02
 291,     5.4052,     15.000,    9.745771e-02
 292,     5.3924,     15.000,    4.407439e-02
 293,     5.3802,     15.000,    7.769429e-02
 294,     5.3683,      3.203,    2.284143e-02
 295,     5.3604,     15.000,    1.294932e-01
 296,     5.3467,     15.000,    1.587578e-01
 297,     5.3329,     15.000,    8.093370e-02
 298,     5.3214,     15.000,    1.162626e-01
 299,     5.3108,     15.000,    8.029296e-02
 300,     5.3010,     15.000,    1.350448e-01
 301,     5.2965,     14.597,    5.907627e-02
 302,     5.2904,     11.970,    9.224490e-02
 303,     5.2771,     15.000,    1.256363e-01
 304,     5.2682,     15.000,    9.008282e-02
 305,     5.2585,     15.000,    1.129042e-01
 306,     5.2504,      6.674,    3.508306e-02
 307,     5.2459,     10.214,    7.325877e-02
 308,     5.2329,     15.000,    1.082917e-01
 309,     5.2242,      7.804,    5.257598e-02
 310,     5.2188,      3.849,    2.270120e-02
 311,     5.2116,     13.116,    9.704002e-02
 312,     5.2012,     15.000,    9.594833e-02
 313,     5.1945,     15.000,    6.653000e-02
 314,     5.1874,      7.029,    5.019534e-02
 315,     5.1788,     15.000,    1.319140e-01
 316,     5.1634,     15.000,    1.046354e-01
 317,     5.1465,     15.000,    1.428444e-01
 318,     5.1292,     15.000,    1.463119e-01
 319,     5.1026,     15.000,    1.211539e-01
 320,     5.0854,     15.000,    1.009140e-01
 321,     5.0695,     15.000,    8.857809e-02
 322,     5.0640,     15.000,    1.055455e-01
 323,     5.0543,     15.000,    6.579186e-02
 324,     5.0412,     15.000,    6.896728e-02
 325,     5.0273,     15.000,    8.666282e-02
 326,     5.0156,     15.000,    9.569621e-02
 327,     5.0039,     15.000,    6.175344e-02
 328,     4.9870,     15.000,    1.005702e-01
 329,     4.9862,     15.000,    1.144480e-01
 330,     4.9625,     15.000,    1.063392e-01
 331,     4.9519,     15.000,    1.152939e-01
 332,     4.9363,     15.000,    9.213082e-02
 333,     4.9197,     15.000,    1.134280e-01
 334,     4.9035,     15.000,    1.080512e-01
 335,     4.8795,     15.000,    8.596028e-02
 336,     4.8716,     15.000,    1.940298e+00
 337,     4.8562,     15.000,    1.966178e+00
 338,     4.8398,     15.000,    2.028577e+00
 339,     4.8223,     15.000,    1.988268e+00
 340,     4.8055,     15.000,    1.965948e+00
 341,     4.7894,     15.000,    2.177857e+00
 342,     4.7767,      3.539,    3.026507e+00
 343,     4.7706,     15.000,    1.267794e+00
 344,     4.7633,     15.000,    1.342090e+00
 345,     4.7554,     15.000,    1.291000e+00
 346,     4.7474,     15.000,    1.187220e+00
 347,     4.7364,     15.000,    1.573780e-01
 348,     4.7241,     15.000,    9.399866e-02
 349,     4.7072,     15.000,    1.137143e-01
 350,     4.6968,     15.000,    1.092694e-01
 351,     4.6858,     15.000,    9.502319e-02
 352,     4.6741,     15.000,    1.125831e-01
 353,     4.6643,      8.666,    6.369867e-02
 354,     4.6576,      8.563,    5.647216e-02
 355,     4.6512,      9.549,    5.904894e-02
 356,     4.6392,     14.992,    9.979329e-02
 357,     4.6302,      1.828,    9.771393e-03
 358,     4.6257,     15.000,    8.595337e-02
 359,     4.6164,     13.153,    1.016273e-01
 360,     4.6103,     15.000,    9.434714e-02
 361,     4.5958,     15.000,    9.311127e-02
 362,     4.5861,     15.000,    1.053027e-01
 363,     4.5779,      3.634,    1.778489e-02
 364,     4.5662,     14.424,    5.981767e-02
 365,     4.5573,     15.000,    6.797903e-02
 366,     4.5449,     15.000,    8.536007e-02
 367,     4.5372,     15.000,    7.403806e-02
 368,     4.5270,     15.000,    8.190852e-02
 369,     4.5163,     15.000,    1.269593e-01
 370,     4.5025,     15.000,    1.122736e-01
 371,     4.4871,     15.000,    1.328581e-01
 372,     4.4686,     15.000,    9.227340e-02
 373,     4.4563,     15.000,    9.181003e-02
 374,     4.4445,     15.000,    1.051155e-01
 375,     4.4262,     15.000,    9.769959e-02
 376,     4.4171,     15.000,    1.399849e-01
 377,     4.4054,     15.000,    7.853343e-02
 378,     4.3821,     15.000,    1.211943e-01
 379,     4.3527,     15.000,    1.561275e-01
 380,     4.3367,     15.000,    1.262897e-01
 381,     4.3243,     15.000,    1.258573e-01
 382,     4.2990,     15.000,    1.403576e-01
 383,     4.2808,     15.000,    1.419277e-01
 384,     4.2667,     15.000,    1.387696e-01
 385,     4.2514,     15.000,    9.133953e-02
 386,     4.2406,      7.361,    3.885132e-02
 387,     4.2352,      5.330,    2.408122e-02
 388,     4.2292,     11.915,    4.831644e-02
 389,     4.2173,     15.000,    7.618165e-02
 390,     4.2061,     15.000,    9.941380e-02
 391,     4.1959,      9.612,    5.141845e-02
 392,     4.1873,     12.536,    2.912119e-02
 393,     4.1823,     15.000,    8.411210e-02
 394,     4.1727,     15.000,    8.004571e-02
 395,     4.1638,     13.084,    7.528235e-02
 396,     4.1404,      3.826,    1.919856e-02
 397,     4.1358,     15.000,    1.201023e-01
 398,     4.1266,     14.031,    1.193746e-01
 399,     4.1187,     15.000,    1.085368e-01
 400,     4.1116,     10.494,    6.595638e-02
 401,     4.1017,     15.000,    1.066863e-01
 402,     4.0630,      5.598,    1.287663e-01
 403,     4.0593,      8.863,    2.537418e-01
 404,     4.0562,      8.491,    4.266172e-01
 405,     4.0536,      9.016,    4.110516e-01
 406,     4.0503,      8.073,    4.587966e-01
 407,     4.0476,      9.329,    4.107678e-01
 408,     4.0435,     10.946,    3.472936e-01
 409,     4.0092,     15.000,    1.450029e-01
 410,     4.0004,     15.000,    1.694930e-01
 411,     3.9941,     15.000,    1.196923e-01
 412,     3.9871,      7.479,    5.111948e-02
 413,     3.9801,      7.442,    4.296075e-02
 414,     3.9761,      9.515,    8.190172e-02
 415,     3.9717,      2.481,    1.362060e-02
 416,     3.9640,     15.000,    1.066889e-01
 417,     3.9606,      0.517,    8.159873e-03
 418,     3.9506,     15.000,    9.251876e-02
 419,     3.9395,     15.000,    1.767640e-01
 420,     3.9316,      4.573,    1.016478e-01
 421,     3.9296,      8.547,    1.312428e-01
 422,     3.9231,      7.583,    2.161538e-01
 423,     3.9148,      8.472,    1.155075e-01
 424,     3.9014,     15.000,    4.302912e-02
 425,     3.8954,     10.992,    7.887457e-02
 426,     3.8889,     14.527,    1.350959e-01
 427,     3.8744,     13.030,    8.222492e-02
 428,     3.8635,      9.848,    6.448340e-02
 429,     3.8541,     15.000,    9.345878e-02
 430,     3.8484,      4.584,    2.620922e-02
 431,     3.8388,     15.000,    5.293776e-02
 432,     3.8254,     15.000,    1.758383e-01
 433,     3.8156,     12.479,    1.175274e-01
