index,   freq_ppm,   decay_hz, amplitude
   1,     8.9958,      5.653,    4.935005e-02
   2,     8.9897,      6.103,    1.704493e-02
   3,     8.9816,     15.000,    9.999814e-02
   4,     8.9738,      4.630,    3.086604e-02
   5,     8.9649,     15.000,    1.527826e-01
   6,     8.9492,     15.000,    9.557067e-02
   7,     8.9364,     15.000,    7.734632e-02
   8,     8.9313,     10.917,    6.703994e-02
   9,     8.9200,     15.000,    1.029811e-01
  10,     8.9033,     15.000,    8.759758e-02
  11,     8.8875,     15.000,    9.999765e-02
  12,     8.8748,     15.000,    6.713106e-02
  13,     8.8663,     15.000,    5.077738e-02
  14,     8.8571,     14.129,    7.617962e-02
  15,     8.8454,     10.417,    6.483295e-02
  16,     8.8390,     12.761,    9.495705e-02
  17,     8.8318,     10.236,    6.251439e-02
  18,     8.8273,      7.638,    5.167000e-02
  19,     8.8225,     15.000,    1.050224e-01
  20,     8.8138,     15.000,    1.350055e-01
  21,     8.7956,     15.000,    1.818783e-01
  22,     8.7788,     15.000,    1.300737e-01
  23,     8.7660,     15.000,    1.835303e-01
  24,     8.7553,     15.000,    1.860789e-01
  25,     8.7416,     15.000,    1.305759e-01
  26,     8.7309,     15.000,    1.533217e-01
  27,     8.7195,     15.000,    8.499852e-02
  28,     8.7067,     15.000,    1.375818e-01
  29,     8.6877,     15.000,    9.855091e-02
  30,     8.6665,     15.000,    1.625272e-01
  31,     8.6473,     15.000,    1.075125e-01
  32,     8.6361,     11.849,    8.523332e-02
  33,     8.6301,     15.000,    1.086597e-01
  34,     8.6124,     15.000,    1.140940e-01
  35,     8.5955,     15.000,    1.240858e-01
  36,     8.5863,     15.000,    9.923173e-02
  37,     8.5755,     15.000,    5.993053e-02
  38,     8.5647,     15.000,    1.415389e-01
  39,     8.5446,     15.000,    6.482027e-02
  40,     8.5376,     15.000,    6.801396e-02
  41,     8.5255,     15.000,    9.195492e-02
  42,     8.5123,     15.000,    8.392395e-02
  43,     8.4977,     15.000,    1.188025e-01
  44,     8.4728,     15.000,    1.305770e-01
  45,     8.4462,      2.399,    3.120591e-01
  46,     8.4451,      5.556,    1.113672e+00
  47,     8.4365,     15.000,    1.474260e-01
  48,     8.4120,     15.000,    9.426456e-02
  49,     8.3881,     15.000,    7.567750e-02
  50,     8.3734,     15.000,    1.000971e-01
  51,     8.3606,     15.000,    7.647939e-02
  52,     8.3481,     15.000,    7.356562e-02
  53,     8.3404,     15.000,    8.800059e-02
  54,     8.3299,     15.000,    6.432448e-02
  55,     8.3209,     15.000,    8.264397e-02
  56,     8.3162,     15.000,    8.871809e-02
  57,     8.3089,      8.715,    3.600813e-02
  58,     8.2985,     15.000,    8.390114e-02
  59,     8.2839,     15.000,    1.021333e-01
  60,     8.2727,     15.000,    9.264994e-02
  61,     8.2661,      5.513,    3.751424e-02
  62,     8.2582,     15.000,    8.450703e-02
  63,     8.2443,     15.000,    1.386987e-01
  64,     8.2329,     15.000,    1.360209e-01
  65,     8.2157,     15.000,    1.605007e-01
  66,     8.1914,     15.000,    1.420250e-01
  67,     8.1772,     15.000,    1.169383e-01
  68,     8.1645,     15.000,    1.417249e-01
  69,     8.1560,     15.000,    1.087831e-01
  70,     8.1451,     15.000,    1.402924e-01
  71,     8.1333,     15.000,    1.392014e-01
  72,     8.1149,     15.000,    1.257654e-01
  73,     8.0988,     15.000,    1.495843e-01
  74,     8.0798,     15.000,    1.179777e-01
  75,     8.0664,     15.000,    1.313837e-01
  76,     8.0512,     15.000,    1.374941e-01
  77,     8.0419,      7.666,    3.862414e-02
  78,     8.0271,     15.000,    1.084263e-01
  79,     8.0171,     15.000,    5.054767e-02
  80,     8.0091,     15.000,    1.226092e-01
  81,     7.9970,     15.000,    9.661495e-02
  82,     7.9809,     15.000,    1.045981e-01
  83,     7.9691,     15.000,    1.150618e-01
  84,     7.9348,     15.000,    1.087978e-01
  85,     7.9046,     15.000,    1.352490e-01
  86,     7.8839,     15.000,    1.148464e-01
  87,     7.8599,     15.000,    9.413327e-02
  88,     7.8451,     15.000,    9.471870e-02
  89,     7.8324,     15.000,    8.652240e-02
  90,     7.8217,      7.722,    5.969820e-02
  91,     7.8103,     15.000,    9.429975e-02
  92,     7.8008,      9.576,    5.151927e-02
  93,     7.7959,      6.887,    4.281066e-02
  94,     7.7861,     15.000,    1.263122e-01
  95,     7.7725,     15.000,    1.251634e-01
  96,     7.7630,     15.000,    1.171564e-01
  97,     7.7456,     15.000,    1.399950e-01
  98,     7.7301,     15.000,    1.174983e-01
  99,     7.7104,     14.942,    8.542641e-02
 100,     7.7041,     15.000,    5.810886e-02
 101,     7.6865,     15.000,    1.345848e-01
 102,     7.6711,     15.000,    6.971682e-02
 103,     7.6629,     15.000,    5.682268e-02
 104,     7.6546,     15.000,    8.493292e-02
 105,     7.6414,     15.000,    8.282751e-02
 106,     7.6256,     15.000,    7.594450e-02
 107,     7.6135,     15.000,    7.673649e-02
 108,     7.6002,     10.796,    6.829010e-02
 109,     7.5857,     15.000,    1.393765e-01
 110,     7.5704,     15.000,    5.705811e-02
 111,     7.5626,     10.344,    4.154931e-02
 112,     7.5543,     15.000,    1.079818e-01
 113,     7.5462,     15.000,    8.140630e-02
 114,     7.5397,     15.000,    1.060497e-01
 115,     7.5281,     15.000,    8.291680e-02
 116,     7.5165,     11.546,    8.985872e-02
 117,     7.5068,     15.000,    6.279600e-02
 118,     7.5000,     15.000,    4.211906e-02
 119,     7.4845,     15.000,    4.055421e-02
 120,     7.4779,     15.000,    1.084461e-01
 121,     7.4652,     15.000,    1.135682e-01
 122,     7.4521,      8.406,    5.000946e-02
 123,     7.4454,     15.000,    7.420985e-02
 124,     7.4330,     15.000,    7.381568e-02
 125,     7.4186,     15.000,    1.001798e-01
 126,     7.4064,     15.000,    1.260546e-01
 127,     7.3992,     14.443,    5.824336e-02
 128,     7.3919,     15.000,    6.241341e-02
 129,     7.3850,     15.000,    6.502793e-02
 130,     7.3705,     15.000,    9.463250e-02
 131,     7.3540,     15.000,    8.823951e-02
 132,     7.3390,     15.000,    9.134351e-02
 133,     7.3285,      5.500,    3.956786e-02
 134,     7.3206,     15.000,    1.068732e-01
 135,     7.3074,     15.000,    8.386446e-02
 136,     7.2945,     14.930,    9.490491e-02
 137,     7.2850,      7.540,    3.991735e-02
 138,     7.2757,     15.000,    8.723874e-02
 139,     7.2638,     10.132,    5.522837e-02
 140,     7.2544,      4.751,    3.340942e-02
 141,     7.2408,     15.000,    1.649225e-01
 142,     7.2243,     15.000,    1.874953e-01
 143,     7.1922,     15.000,    1.000983e-01
 144,     7.1790,     15.000,    1.291625e-01
 145,     7.1660,     15.000,    1.413240e-01
 146,     7.1516,     15.000,    1.150093e-01
 147,     7.1331,     15.000,    1.457341e-01
 148,     7.1264,     15.000,    1.206950e-01
 149,     7.1211,     13.334,    7.681906e-02
 150,     7.1128,     15.000,    1.053209e-01
 151,     7.1067,     15.000,    8.598009e-02
 152,     7.0962,     15.000,    1.554679e-01
 153,     7.0792,     11.070,    2.185658e-01
 154,     7.0672,     15.000,    1.042838e-01
 155,     7.0584,     15.000,    8.967152e-02
 156,     7.0503,     14.880,    1.051126e-01
 157,     7.0405,     15.000,    9.149771e-02
 158,     7.0320,     15.000,    1.252332e-01
 159,     7.0215,      8.446,    4.713672e-02
 160,     7.0118,     10.402,    7.546385e-02
 161,     7.0025,     13.166,    7.055302e-02
 162,     6.9984,     12.224,    3.677193e-02
 163,     6.9836,     15.000,    1.149672e-01
 164,     6.9683,     15.000,    1.173068e-01
 165,     6.9478,     15.000,    1.472283e-01
 166,     6.9354,     14.984,    5.300016e-02
 167,     6.9190,     15.000,    1.304938e-01
 168,     6.9088,     15.000,    1.177003e-01
 169,     6.8869,     15.000,    9.128612e-02
 170,     6.8604,     15.000,    1.273568e-01
 171,     6.8410,     15.000,    9.100244e-02
 172,     6.8316,     15.000,    1.309423e-01
 173,     6.8142,     15.000,    1.002548e-01
 174,     6.8032,     15.000,    1.198078e-01
 175,     6.7897,     12.773,    8.862117e-02
 176,     6.7806,     15.000,    8.268208e-02
 177,     6.7705,     14.917,    8.668102e-02
 178,     6.7642,     14.825,    6.666570e-02
 179,     6.7570,      4.831,    3.211409e-02
 180,     6.7492,      5.946,    3.157921e-02
 181,     6.7432,     14.991,    1.197839e-01
 182,     6.7328,     14.459,    9.816238e-02
 183,     6.7242,     11.792,    5.478095e-02
 184,     6.7165,     10.301,    5.918420e-02
 185,     6.6996,     15.000,    8.496306e-02
 186,     6.6925,      6.275,    2.719479e-02
 187,     6.6867,      7.768,    5.259966e-02
 188,     6.6809,      7.490,    6.167725e-02
 189,     6.6676,     15.000,    8.011480e-02
 190,     6.6450,     15.000,    1.216800e-01
 191,     6.6297,     15.000,    8.816247e-02
 192,     6.6224,     15.000,    1.193496e-01
 193,     6.6063,     15.000,    9.502777e-02
 194,     6.5975,     15.000,    1.333950e-01
 195,     6.5881,     15.000,    5.492275e-02
 196,     6.5808,     10.981,    6.116758e-02
 197,     6.5609,     15.000,    1.146374e-01
 198,     6.5496,     15.000,    1.158611e-01
 199,     6.5374,     15.000,    9.613303e-02
 200,     6.5238,     15.000,    1.198602e-01
 201,     6.5103,     15.000,    1.458683e-01
 202,     6.5014,     15.000,    1.396692e-01
 203,     6.4860,     15.000,    1.531146e-01
 204,     6.4756,     15.000,    1.616771e-01
 205,     6.4582,     15.000,    1.526178e-01
 206,     6.4443,     15.000,    1.111402e-01
 207,     6.4329,     15.000,    8.207493e-02
 208,     6.4117,     15.000,    9.404123e-02
 209,     6.4008,     15.000,    7.466033e-02
 210,     6.3855,     15.000,    8.066228e-02
 211,     6.3803,     15.000,    7.171278e-02
 212,     6.3696,     15.000,    6.655546e-02
 213,     6.3630,      5.207,    4.909367e-02
 214,     6.3560,     15.000,    8.061481e-02
 215,     6.3474,      6.509,    5.075752e-02
 216,     6.3409,     11.779,    8.026081e-02
 217,     6.3284,     11.602,    8.967984e-02
 218,     6.3240,      7.662,    6.548260e-02
 219,     6.3180,      8.140,    3.389660e-02
 220,     6.3121,      5.525,    2.702469e-02
 221,     6.3015,     15.000,    8.265044e-02
 222,     6.2930,     15.000,    9.763785e-02
 223,     6.2754,     15.000,    8.833318e-02
 224,     6.2589,     15.000,    7.116403e-02
 225,     6.2437,     15.000,    1.160764e-01
 226,     6.2255,     14.238,    6.691961e-02
 227,     6.2147,     15.000,    7.615723e-02
 228,     6.2046,     15.000,    1.253856e-01
 229,     6.1869,     15.000,    1.186531e-01
 230,     6.1592,     15.000,    9.464776e-02
 231,     6.1449,     15.000,    8.255570e-02
 232,     6.1289,     15.000,    7.576926e-02
 233,     6.1105,     15.000,    1.146803e-01
 234,     6.0877,     15.000,    7.458493e-02
 235,     6.0761,     15.000,    7.918945e-02
 236,     6.0578,     15.000,    8.595973e-02
 237,     6.0445,     15.000,    8.569040e-02
 238,     6.0291,     15.000,    9.415369e-02
 239,     6.0124,     15.000,    1.985434e-01
 240,     5.9957,     15.000,    1.755389e-01
 241,     5.9850,     15.000,    1.377734e-01
 242,     5.9789,      8.274,    7.800701e-02
 243,     5.9720,     15.000,    1.164876e-01
 244,     5.9611,     15.000,    6.491378e-02
 245,     5.9488,     15.000,    1.159216e-01
 246,     5.9446,      4.210,    3.424083e-02
 247,     5.9380,     15.000,    8.960555e-02
 248,     5.9263,     15.000,    1.155948e-01
 249,     5.9176,     15.000,    8.423935e-02
 250,     5.9003,     15.000,    1.492875e-01
 251,     5.8846,     15.000,    1.143419e-01
 252,     5.8773,     15.000,    1.220379e-01
 253,     5.8591,     15.000,    7.781395e-02
 254,     5.8472,     15.000,    4.735836e-02
 255,     5.8305,     15.000,    9.503986e-02
 256,     5.8196,     15.000,    7.164653e-02
 257,     5.8091,     15.000,    9.894520e-02
 258,     5.7907,     15.000,    8.023129e-02
 259,     5.7819,     13.984,    1.259917e-01
 260,     5.7746,      7.721,    4.198843e-02
 261,     5.7674,     15.000,    1.260520e-01
 262,     5.7570,     15.000,    1.238593e-01
 263,     5.7515,      0.170,    5.595984e-03
 264,     5.7497,      6.607,    4.695459e-02
 265,     5.7454,      8.145,    5.462851e-02
 266,     5.7376,      4.817,    3.830199e-02
 267,     5.7307,     15.000,    1.157541e-01
 268,     5.7117,     15.000,    1.446740e-01
 269,     5.6969,     15.000,    9.775802e-02
 270,     5.6796,     15.000,    8.982608e-02
 271,     5.6707,     14.219,    1.307664e-01
 272,     5.6637,     15.000,    1.289252e-01
 273,     5.6520,     15.000,    1.129464e-01
 274,     5.6460,      4.126,    1.568017e-02
 275,     5.6415,     15.000,    9.439105e-02
 276,     5.6324,      8.623,    5.647624e-02
 277,     5.6208,     12.247,    6.881968e-02
 278,     5.6081,     10.834,    6.622884e-02
 279,     5.6024,     13.019,    7.807244e-02
 280,     5.5969,      4.133,    1.506927e-02
 281,     5.5906,     11.269,    7.150416e-02
 282,     5.5786,     15.000,    1.372117e-01
 283,     5.5650,     15.000,    1.145461e-01
 284,     5.5505,      9.399,    4.828378e-02
 285,     5.5362,     15.000,    9.397742e-02
 286,     5.5224,     15.000,    5.548989e-02
 287,     5.5100,     15.000,    1.164582e-01
 288,     5.4949,     15.000,    1.153441e-01
 289,     5.4832,     15.000,    8.114392e-02
 290,     5.4664,     15.000,    8.581314e-02
 291,     5.4389,     15.000,    1.545149e-01
 292,     5.4296,     15.000,    9.858491e-02
 293,     5.4205,     15.000,    1.026415e-01
 294,     5.4133,     13.740,    1.063272e-01
 295,     5.4079,      8.940,    5.520118e-02
 296,     5.4008,      9.741,    3.410577e-02
 297,     5.3970,      8.872,    4.672008e-02
 298,     5.3851,     15.000,    8.844479e-02
 299,     5.3769,     15.000,    8.234771e-02
 300,     5.3679,     11.307,    7.005194e-02
 301,     5.3610,     15.000,    1.128687e-01
 302,     5.3510,     15.000,    1.978025e-01
 303,     5.3454,     15.000,    2.403863e-01
 304,     5.3315,     15.000,    3.271509e-01
 305,     5.3195,     15.000,    3.299060e-01
 306,     5.3076,     15.000,    3.839101e-01
 307,     5.2964,     15.000,    4.527754e-01
 308,     5.2882,     15.000,    6.822954e-01
 309,     5.2805,     15.000,    6.087236e-01
 310,     5.2746,     15.000,    4.902212e-01
 311,     5.2696,     15.000,    4.557236e-01
 312,     5.2644,     15.000,    4.090667e-01
 313,     5.2585,     15.000,    2.874410e-01
 314,     5.2505,     15.000,    2.912351e-01
 315,     5.2409,     14.426,    2.024803e-01
 316,     5.2300,     14.502,    1.387115e-01
 317,     5.2127,     13.880,    8.885939e-02
 318,     5.1996,      9.676,    7.269728e-02
 319,     5.1893,     15.000,    1.417921e-01
 320,     5.1710,     15.000,    1.074937e-01
 321,     5.1583,     15.000,    1.458211e-01
 322,     5.1477,     15.000,    1.022961e-01
 323,     5.1335,     15.000,    1.060524e-01
 324,     5.1131,     15.000,    1.121716e-01
 325,     5.0952,     15.000,    8.112550e-02
 326,     5.0902,      3.521,    1.456861e-02
 327,     5.0859,      5.881,    4.114124e-02
 328,     5.0780,     14.085,    5.633296e-02
 329,     5.0725,      8.784,    5.095701e-02
 330,     5.0622,     15.000,    1.107753e-01
 331,     5.0537,     15.000,    8.082634e-02
 332,     5.0420,     15.000,    1.353558e-01
 333,     5.0311,     15.000,    7.441729e-02
 334,     5.0231,     11.780,    8.635056e-02
 335,     5.0172,      7.158,    4.926750e-02
 336,     5.0079,     12.146,    9.070098e-02
 337,     5.0004,      7.354,    3.498365e-02
 338,     4.9932,      9.491,    5.626575e-02
 339,     4.9889,     10.346,    5.909303e-02
 340,     4.9810,     15.000,    1.406450e-01
 341,     4.9661,     15.000,    1.108161e-01
 342,     4.9516,     15.000,    8.261594e-02
 343,     4.9434,     12.651,    6.067090e-02
 344,     4.9335,     14.507,    9.322429e-02
 345,     4.9217,     15.000,    1.061361e-01
 346,     4.9132,     15.000,    7.474399e-02
 347,     4.8957,     15.000,    1.048600e-01
 348,     4.8761,     15.000,    8.306412e-02
 349,     4.8609,     15.000,    1.170168e-01
 350,     4.8464,     15.000,    1.189608e-01
 351,     4.8364,     15.000,    2.776008e+00
 352,     4.8273,     15.000,    2.687817e+00
 353,     4.8186,     15.000,    2.672771e+00
 354,     4.8097,     15.000,    2.754831e+00
 355,     4.8007,     15.000,    2.756552e+00
 356,     4.7848,     15.000,    2.808848e+00
 357,     4.7727,     15.000,    2.998907e+00
 358,     4.7630,     15.000,    2.954079e+00
 359,     4.7533,     15.000,    2.898496e+00
 360,     4.7439,     15.000,    2.922158e+00
 361,     4.7309,     15.000,    1.291980e-01
 362,     4.7206,     15.000,    9.192830e-02
 363,     4.7080,     15.000,    9.243610e-02
 364,     4.6942,     15.000,    1.054948e-01
 365,     4.6801,     15.000,    9.943718e-02
 366,     4.6626,     15.000,    1.268237e-01
 367,     4.6454,     15.000,    1.505922e-01
 368,     4.6340,     15.000,    2.417626e-01
 369,     4.6223,     15.000,    2.034620e-01
 370,     4.5856,     15.000,    1.531168e-01
 371,     4.5719,     15.000,    1.698390e-01
 372,     4.5591,     15.000,    1.451066e-01
 373,     4.5468,     15.000,    1.849998e-01
 374,     4.5364,     15.000,    1.912261e-01
 375,     4.5301,     15.000,    5.441098e-02
 376,     4.5205,      8.166,    4.797675e-02
 377,     4.5111,      6.979,    3.780819e-02
 378,     4.5055,      8.088,    4.751860e-02
 379,     4.4834,     15.000,    2.167128e-01
 380,     4.4695,     15.000,    3.361611e-01
 381,     4.4605,     15.000,    3.717633e-01
 382,     4.4520,     15.000,    3.826749e-01
 383,     4.4417,     15.000,    3.225338e-01
 384,     4.4292,     15.000,    3.515159e-01
 385,     4.4135,     15.000,    3.085733e-01
 386,     4.3964,      4.715,    3.598231e-02
 387,     4.3840,      9.083,    5.165220e-02
 388,     4.3754,     15.000,    5.584560e-02
 389,     4.3577,     15.000,    1.240536e-01
 390,     4.3521,     15.000,    2.381356e-01
 391,     4.3458,     12.340,    1.248624e-01
 392,     4.3412,     15.000,    1.739469e-01
 393,     4.3350,     12.835,    7.051396e-02
 394,     4.3262,     15.000,    1.104450e-01
 395,     4.3151,     15.000,    1.187348e-01
 396,     4.3045,     15.000,    1.205857e-01
 397,     4.2986,     15.000,    1.536385e-01
 398,     4.2929,     15.000,    2.272383e-01
 399,     4.2844,     15.000,    3.088621e-01
 400,     4.2788,     15.000,    1.644296e-01
 401,     4.2725,     14.354,    3.402157e-01
 402,     4.2619,     15.000,    2.239085e-01
 403,     4.2558,      0.595,    7.349233e-03
 404,     4.2513,     12.389,    7.985354e-02
 405,     4.2429,     15.000,    1.573083e-01
 406,     4.2339,     15.000,    9.372681e-02
 407,     4.2281,     15.000,    3.236136e-01
 408,     4.2180,      6.255,    3.521641e-02
 409,     4.2043,     11.200,    7.413668e-02
 410,     4.1978,     15.000,    8.947581e-02
 411,     4.1864,     15.000,    1.241662e-01
 412,     4.1776,     15.000,    8.216756e-02
 413,     4.1644,     12.143,    9.894305e-02
 414,     4.1582,      8.189,    3.825836e-02
 415,     4.1462,     14.734,    9.672093e-02
 416,     4.1411,      3.917,    2.512269e-02
 417,     4.1387,      0.163,    5.155337e-03
 418,     4.1317,     12.016,    9.864352e-02
 419,     4.1204,     15.000,    6.708153e-02
 420,     4.1146,     15.000,    3.914702e-02
 421,     4.1038,     15.000,    1.386061e-01
 422,     4.0929,     11.793,    7.629448e-02
 423,     4.0628,      4.079,    2.563485e-01
 424,     4.0595,      5.313,    3.617246e-01
 425,     4.0559,     11.691,    1.920000e+00
 426,     4.0503,     15.000,    2.653752e+00
 427,     4.0445,     14.801,    9.485413e-01
 428,     4.0270,     15.000,    1.553590e-01
 429,     4.0193,     13.846,    1.986203e-01
 430,     4.0116,     10.119,    1.255154e-01
 431,     4.0036,      8.432,    7.688584e-02
 432,     3.9974,      5.498,    1.270487e-01
 433,     3.9947,      6.095,    1.440395e-01
