index,   freq_ppm,   decay_hz, amplitude
   1,     8.9915,     15.000,    9.472725e-02
   2,     8.9737,     15.000,    7.004258e-02
   3,     8.9604,     15.000,    5.694212e-02
   4,     8.9502,     15.000,    9.678059e-02
   5,     8.9246,     15.000,    1.005546e-01
   6,     8.9071,     15.000,    6.088158e-02
   7,     8.8952,      2.643,    1.982973e-02
   8,     8.8904,     15.000,    8.699977e-02
   9,     8.8815,      7.631,    4.183420e-02
  10,     8.8762,     10.564,    4.309635e-02
  11,     8.8701,     15.000,    1.040880e-01
  12,     8.8619,      7.614,    4.007379e-02
  13,     8.8583,     10.283,    6.228587e-02
  14,     8.8538,      7.307,    4.989193e-02
  15,     8.8413,     15.000,    4.972557e-02
  16,     8.8335,     15.000,    1.041622e-01
  17,     8.8272,      6.668,    3.236285e-02
  18,     8.8227,     13.345,    8.777861e-02
  19,     8.8149,     15.000,    7.644156e-02
  20,     8.8039,     15.000,    1.240958e-01
  21,     8.7945,      7.874,    6.012320e-02
  22,     8.7871,     10.234,    4.892679e-02
  23,     8.7823,      5.692,    2.845357e-02
  24,     8.7758,      8.134,    3.437153e-02
  25,     8.7677,     15.000,    7.636968e-02
  26,     8.7532,     15.000,    8.279380e-02
  27,     8.7444,      7.213,    2.762986e-02
  28,     8.7395,     10.112,    6.073833e-02
  29,     8.7332,      9.235,    5.620413e-02
  30,     8.7197,      8.294,    3.618563e-02
  31,     8.7116,     15.000,    1.323343e-01
  32,     8.7057,     10.186,    6.266827e-02
  33,     8.6991,      9.909,    5.992877e-02
  34,     8.6927,      3.607,    1.968252e-02
  35,     8.6867,     11.092,    4.505938e-02
  36,     8.6774,     12.760,    1.315764e-01
  37,     8.6706,     11.128,    2.034975e-02
  38,     8.6650,     11.284,    6.618692e-02
  39,     8.6592,     15.000,    6.087320e-02
  40,     8.6524,     13.121,    9.993307e-02
  41,     8.6444,     11.870,    6.743024e-02
  42,     8.6375,     10.854,    6.289947e-02
  43,     8.6311,      7.814,    4.093368e-02
  44,     8.6190,     15.000,    8.421554e-02
  45,     8.6080,     15.000,    8.863062e-02
  46,     8.5924,     15.000,    5.708527e-02
  47,     8.5783,     15.000,    1.165540e-01
  48,     8.5713,     15.000,    6.943257e-02
  49,     8.5630,     14.086,    9.139697e-02
  50,     8.5541,     15.000,    6.282277e-02
  51,     8.5409,     15.000,    9.780198e-02
  52,     8.5293,      9.754,    5.136319e-02
  53,     8.5219,     15.000,    8.483067e-02
  54,     8.5090,     15.000,    1.378604e-01
  55,     8.4991,     15.000,    1.048049e-01
  56,     8.4887,     15.000,    8.456097e-02
  57,     8.4773,     15.000,    9.449056e-02
  58,     8.4464,      1.660,    5.065131e-01
  59,     8.4451,      2.150,    8.044964e-01
  60,     8.4430,      8.468,    2.748202e+00
  61,     8.4280,     15.000,    1.765105e-01
  62,     8.4182,     15.000,    1.494706e-01
  63,     8.4094,     15.000,    1.244956e-01
  64,     8.4014,     15.000,    9.625992e-02
  65,     8.3916,     15.000,    1.308161e-01
  66,     8.3836,     15.000,    6.038798e-02
  67,     8.3696,     15.000,    1.022919e-01
  68,     8.3527,     15.000,    7.867259e-02
  69,     8.3445,     15.000,    8.093901e-02
  70,     8.3268,     12.681,    4.358187e-02
  71,     8.3193,      7.028,    5.283961e-02
  72,     8.3130,     15.000,    1.042743e-01
  73,     8.2992,     15.000,    1.049697e-01
  74,     8.2909,     15.000,    7.112310e-02
  75,     8.2786,     15.000,    5.912509e-02
  76,     8.2659,     15.000,    6.551608e-02
  77,     8.2601,      6.918,    3.023247e-02
  78,     8.2469,     15.000,    6.794737e-02
  79,     8.2401,     13.134,    7.655194e-02
  80,     8.2303,      5.113,    2.132316e-02
  81,     8.2226,     15.000,    5.293576e-02
  82,     8.2143,     15.000,    1.021830e-01
  83,     8.1993,      7.182,    1.708100e-02
  84,     8.1944,      5.390,    2.059661e-02
  85,     8.1663,     15.000,    1.127310e-01
  86,     8.1467,     15.000,    1.163054e-01
  87,     8.1231,     15.000,    9.540901e-02
  88,     8.1092,     15.000,    1.272807e-01
  89,     8.0832,     15.000,    9.374857e-02
  90,     8.0671,     15.000,    1.294451e-01
  91,     8.0262,     15.000,    1.190332e-01
  92,     8.0098,      0.267,    2.737640e-03
  93,     8.0073,     13.514,    7.441207e-02
  94,     7.9952,     14.870,    8.701612e-02
  95,     7.9898,      9.092,    2.001978e-02
  96,     7.9830,      9.536,    4.446771e-02
  97,     7.9739,     12.807,    5.202239e-02
  98,     7.9679,     14.786,    6.570634e-02
  99,     7.9603,      9.019,    3.819362e-02
 100,     7.9529,      9.147,    5.301433e-02
 101,     7.9481,      6.643,    3.644798e-02
 102,     7.9390,      8.403,    4.087173e-02
 103,     7.9282,     15.000,    5.502421e-02
 104,     7.9106,     15.000,    1.284007e-01
 105,     7.8983,     15.000,    7.628706e-02
 106,     7.8815,     15.000,    7.820769e-02
 107,     7.8648,     15.000,    1.209600e-01
 108,     7.8409,     15.000,    1.145782e-01
 109,     7.8260,     15.000,    1.194034e-01
 110,     7.8133,     15.000,    1.084581e-01
 111,     7.7921,     15.000,    1.268352e-01
 112,     7.7788,     15.000,    8.382422e-02
 113,     7.7631,     15.000,    9.571984e-02
 114,     7.7449,     12.799,    7.628504e-02
 115,     7.7365,      7.994,    3.718759e-02
 116,     7.7290,     11.516,    8.727380e-02
 117,     7.7237,      5.267,    1.595998e-02
 118,     7.7180,      8.279,    5.252320e-02
 119,     7.7089,     15.000,    8.728680e-02
 120,     7.7004,     15.000,    7.905085e-02
 121,     7.6885,     15.000,    1.307649e-01
 122,     7.6745,     15.000,    8.414506e-02
 123,     7.6559,     15.000,    1.124505e-01
 124,     7.6437,     15.000,    9.414897e-02
 125,     7.6299,     12.812,    8.923287e-02
 126,     7.6189,     13.580,    7.675312e-02
 127,     7.6120,     15.000,    9.947122e-02
 128,     7.6015,     15.000,    9.725172e-02
 129,     7.5929,     15.000,    8.927027e-02
 130,     7.5821,     13.312,    7.025077e-02
 131,     7.5734,     11.307,    2.650310e-02
 132,     7.5679,     11.839,    5.883466e-02
 133,     7.5588,      4.536,    1.930551e-02
 134,     7.5545,     10.159,    4.067004e-02
 135,     7.5476,     12.826,    5.960015e-02
 136,     7.5356,      7.799,    3.775296e-02
 137,     7.5298,      5.253,    1.655144e-02
 138,     7.5239,      7.381,    3.948779e-02
 139,     7.5123,     15.000,    1.008562e-01
 140,     7.4921,     15.000,    7.794420e-02
 141,     7.4839,     15.000,    9.742641e-02
 142,     7.4735,     15.000,    1.405646e-01
 143,     7.4635,     15.000,    9.233262e-02
 144,     7.4511,     15.000,    1.120634e-01
 145,     7.4388,     15.000,    7.797154e-02
 146,     7.4304,      3.342,    1.837693e-02
 147,     7.4258,      5.173,    1.335644e-02
 148,     7.4174,      7.265,    5.434982e-02
 149,     7.4121,     15.000,    4.493570e-02
 150,     7.3988,     15.000,    1.055981e-01
 151,     7.3852,     15.000,    1.097447e-01
 152,     7.3613,     15.000,    2.036505e-01
 153,     7.3494,     15.000,    9.615094e-02
 154,     7.3325,     15.000,    1.085608e-01
 155,     7.3232,     15.000,    8.227965e-02
 156,     7.3092,      9.700,    4.314835e-02
 157,     7.3040,     12.548,    6.144924e-02
 158,     7.2947,     15.000,    4.707321e-02
 159,     7.2873,     10.635,    5.198675e-02
 160,     7.2805,      5.299,    2.735899e-02
 161,     7.2729,      6.775,    3.645496e-02
 162,     7.2650,     15.000,    7.601906e-02
 163,     7.2603,     14.699,    6.173841e-02
 164,     7.2488,     15.000,    8.632294e-02
 165,     7.2400,     13.811,    6.677832e-02
 166,     7.2235,     12.595,    5.618565e-02
 167,     7.2150,     11.694,    6.973876e-02
 168,     7.2095,     12.184,    6.979161e-02
 169,     7.2014,      9.300,    5.236247e-02
 170,     7.1935,      9.482,    4.285867e-02
 171,     7.1848,     15.000,    1.181705e-01
 172,     7.1736,     15.000,    6.162192e-02
 173,     7.1617,     15.000,    8.915135e-02
 174,     7.1487,     15.000,    9.824888e-02
 175,     7.1304,     15.000,    1.095315e-01
 176,     7.1139,     15.000,    1.008870e-01
 177,     7.0903,     15.000,    6.662723e-02
 178,     7.0781,     11.933,    1.477336e-01
 179,     7.0710,     15.000,    7.539710e-02
 180,     7.0549,     15.000,    8.082021e-02
 181,     7.0382,     15.000,    7.407086e-02
 182,     7.0218,     15.000,    6.915042e-02
 183,     7.0055,     15.000,    1.116581e-01
 184,     6.9939,     15.000,    9.531944e-02
 185,     6.9842,     15.000,    5.526338e-02
 186,     6.9764,     15.000,    6.715926e-02
 187,     6.9637,     15.000,    7.302347e-02
 188,     6.9517,     15.000,    9.430250e-02
 189,     6.9374,     15.000,    1.302368e-01
 190,     6.9291,     15.000,    7.372616e-02
 191,     6.9174,     15.000,    1.044040e-01
 192,     6.9062,     15.000,    6.198840e-02
 193,     6.8954,     15.000,    8.555143e-02
 194,     6.8858,     15.000,    6.589793e-02
 195,     6.8780,     15.000,    1.028608e-01
 196,     6.8708,      9.028,    3.410729e-02
 197,     6.8642,     10.066,    4.978354e-02
 198,     6.8479,     15.000,    1.121171e-01
 199,     6.8325,     15.000,    1.188111e-01
 200,     6.8140,     15.000,    1.400294e-01
 201,     6.7985,     15.000,    1.402856e-01
 202,     6.7775,     15.000,    1.462426e-01
 203,     6.7621,     15.000,    1.049492e-01
 204,     6.7397,     15.000,    1.632866e-01
 205,     6.7240,     15.000,    7.981700e-02
 206,     6.7135,     15.000,    1.109758e-01
 207,     6.6946,     15.000,    9.691495e-02
 208,     6.6773,     15.000,    1.336034e-01
 209,     6.6498,     15.000,    1.101848e-01
 210,     6.6361,     15.000,    9.135437e-02
 211,     6.6250,     15.000,    7.526701e-02
 212,     6.6184,     11.751,    5.870443e-02
 213,     6.6039,     15.000,    8.742391e-02
 214,     6.5919,     15.000,    7.371176e-02
 215,     6.5743,     15.000,    1.046608e-01
 216,     6.5653,      4.988,    3.699254e-02
 217,     6.5584,     14.131,    5.894968e-02
 218,     6.5476,     14.916,    5.122188e-02
 219,     6.5404,     15.000,    9.528600e-02
 220,     6.5245,     15.000,    7.871030e-02
 221,     6.5093,     15.000,    7.755265e-02
 222,     6.5044,     10.944,    3.844089e-02
 223,     6.4990,     10.188,    5.040417e-02
 224,     6.4912,      9.611,    3.549146e-02
 225,     6.4855,     15.000,    8.614385e-02
 226,     6.4759,      8.644,    3.833932e-02
 227,     6.4674,     13.837,    7.838446e-02
 228,     6.4609,     13.743,    7.408678e-02
 229,     6.4513,     14.314,    9.776031e-02
 230,     6.4398,     14.586,    9.200892e-02
 231,     6.4216,     14.607,    1.049520e-01
 232,     6.4111,     13.873,    7.001933e-02
 233,     6.4017,     14.548,    1.126185e-01
 234,     6.3859,     15.000,    7.817034e-02
 235,     6.3761,      8.006,    3.859536e-02
 236,     6.3624,     15.000,    1.208311e-01
 237,     6.3536,     15.000,    1.210635e-01
 238,     6.3434,     15.000,    1.005000e-01
 239,     6.3301,     15.000,    7.276420e-02
 240,     6.3231,      6.450,    4.063140e-02
 241,     6.3148,     15.000,    7.628285e-02
 242,     6.3027,     15.000,    7.990578e-02
 243,     6.2928,     15.000,    5.598744e-02
 244,     6.2802,     15.000,    8.154609e-02
 245,     6.2616,     15.000,    1.262540e-01
 246,     6.2491,     15.000,    7.939640e-02
 247,     6.2348,     15.000,    1.305316e-01
 248,     6.2187,     15.000,    1.048773e-01
 249,     6.2053,     15.000,    1.199803e-01
 250,     6.1866,     15.000,    9.921262e-02
 251,     6.1700,     15.000,    9.609377e-02
 252,     6.1569,     15.000,    8.395645e-02
 253,     6.1517,     12.611,    7.464718e-02
 254,     6.1461,     11.461,    8.091729e-02
 255,     6.1397,      6.211,    2.660698e-02
 256,     6.1336,     15.000,    1.426305e-01
 257,     6.1248,     15.000,    1.001533e-01
 258,     6.1059,     15.000,    1.157766e-01
 259,     6.0896,     15.000,    1.093798e-01
 260,     6.0765,     15.000,    1.194751e-01
 261,     6.0652,     15.000,    1.192490e-01
 262,     6.0497,     15.000,    1.023126e-01
 263,     6.0416,      0.044,    4.482950e-03
 264,     6.0372,      6.007,    3.319337e-02
 265,     6.0301,      9.520,    6.428862e-02
 266,     6.0240,      0.300,    4.068488e-03
 267,     6.0208,      8.255,    4.465287e-02
 268,     6.0074,     15.000,    1.499191e-01
 269,     5.9868,     15.000,    1.307733e-01
 270,     5.9766,     15.000,    1.395678e-01
 271,     5.9612,     15.000,    1.086122e-01
 272,     5.9389,     15.000,    1.433367e-01
 273,     5.9186,     15.000,    1.406216e-01
 274,     5.9018,     13.013,    6.725311e-02
 275,     5.8936,     15.000,    1.176180e-01
 276,     5.8780,     15.000,    1.131038e-01
 277,     5.8598,     15.000,    1.262148e-01
 278,     5.8522,     15.000,    9.317999e-02
 279,     5.8359,     15.000,    1.270982e-01
 280,     5.8279,     13.475,    6.375434e-02
 281,     5.8172,     15.000,    4.599132e-02
 282,     5.8093,      4.988,    2.075010e-02
 283,     5.8035,     12.599,    9.097227e-02
 284,     5.7925,     15.000,    7.929870e-02
 285,     5.7827,     15.000,    6.258785e-02
 286,     5.7675,     15.000,    7.962234e-02
 287,     5.7558,     15.000,    7.921205e-02
 288,     5.7470,     15.000,    1.017629e-01
 289,     5.7349,     15.000,    9.317908e-02
 290,     5.7228,     15.000,    7.692129e-02
 291,     5.7061,     15.000,    9.065040e-02
 292,     5.6930,     15.000,    9.486100e-02
 293,     5.6766,     15.000,    1.085120e-01
 294,     5.6671,     15.000,    8.432275e-02
 295,     5.6555,     15.000,    6.878229e-02
 296,     5.6433,     15.000,    1.107804e-01
 297,     5.6151,     15.000,    9.825005e-02
 298,     5.6031,     12.671,    5.665186e-02
 299,     5.5956,     15.000,    5.767990e-02
 300,     5.5813,     13.055,    5.818181e-02
 301,     5.5738,     15.000,    6.087792e-02
 302,     5.5626,     15.000,    8.730614e-02
 303,     5.5541,     15.000,    7.363945e-02
 304,     5.5476,     15.000,    6.583191e-02
 305,     5.5306,     15.000,    5.844061e-02
 306,     5.5215,     15.000,    9.558676e-02
 307,     5.5095,     13.261,    5.360714e-02
 308,     5.5002,      9.995,    3.884887e-02
 309,     5.4971,      6.184,    2.996042e-02
 310,     5.4940,     10.042,    2.650988e-02
 311,     5.4868,      7.998,    6.288099e-02
 312,     5.4822,      8.738,    5.223076e-02
 313,     5.4710,     13.751,    7.452539e-02
 314,     5.4638,     15.000,    4.610794e-02
 315,     5.4479,     15.000,    8.073308e-02
 316,     5.4360,     15.000,    7.212869e-02
 317,     5.4283,     15.000,    5.206392e-02
 318,     5.4168,     15.000,    1.265773e-01
 319,     5.4049,     15.000,    4.926345e-02
 320,     5.3854,     15.000,    8.231322e-02
 321,     5.3732,     15.000,    7.320970e-02
 322,     5.3594,     15.000,    9.772425e-02
 323,     5.3455,     15.000,    1.276069e-01
 324,     5.3331,     15.000,    1.860924e-01
 325,     5.3161,     15.000,    2.237216e-01
 326,     5.2988,     15.000,    2.124028e-01
 327,     5.2883,     15.000,    2.735585e-01
 328,     5.2767,     15.000,    3.389647e-01
 329,     5.2652,     15.000,    2.572941e-01
 330,     5.2441,     15.000,    1.824584e-01
 331,     5.1797,     15.000,    6.803878e-02
 332,     5.1704,     15.000,    1.020494e-01
 333,     5.1567,     15.000,    1.077842e-01
 334,     5.1489,      4.296,    1.897556e-02
 335,     5.1406,     15.000,    6.366678e-02
 336,     5.1303,     15.000,    4.950083e-02
 337,     5.1211,      4.758,    1.757341e-02
 338,     5.1192,      9.717,    4.784592e-02
 339,     5.1085,      5.530,    2.784322e-02
 340,     5.1018,      6.229,    2.788220e-02
 341,     5.0982,     15.000,    1.349554e-01
 342,     5.0880,     15.000,    8.844268e-02
 343,     5.0757,     15.000,    1.352503e-01
 344,     5.0640,     15.000,    1.016390e-01
 345,     5.0497,     15.000,    8.895987e-02
 346,     5.0427,     15.000,    8.948512e-02
 347,     5.0294,     15.000,    9.896006e-02
 348,     5.0074,     15.000,    1.107108e-01
 349,     4.9888,     15.000,    1.339362e-01
 350,     4.9592,     15.000,    1.063247e-01
 351,     4.9400,     15.000,    1.040754e-01
 352,     4.9255,     15.000,    1.003279e-01
 353,     4.9063,     15.000,    1.429952e-01
 354,     4.8882,     15.000,    8.368675e-02
 355,     4.8736,     15.000,    1.003847e-01
 356,     4.8620,     15.000,    1.164635e-01
 357,     4.8501,     15.000,    8.211204e-02
 358,     4.8379,     13.893,    7.202966e-02
 359,     4.8242,     15.000,    1.999107e+00
 360,     4.8149,     15.000,    1.938042e+00
 361,     4.8056,     15.000,    1.971213e+00
 362,     4.7963,     15.000,    1.913478e+00
 363,     4.7868,     15.000,    2.492252e+00
 364,     4.7758,      4.074,    1.342120e+00
 365,     4.7685,     15.000,    2.021926e+00
 366,     4.7610,     15.000,    1.846269e+00
 367,     4.7532,     15.000,    1.727865e+00
 368,     4.7455,     15.000,    1.765457e+00
 369,     4.7296,     15.000,    8.383576e-02
 370,     4.7179,     15.000,    7.123201e-02
 371,     4.7043,     15.000,    8.991677e-02
 372,     4.6869,     15.000,    1.226918e-01
 373,     4.6649,     15.000,    8.092406e-02
 374,     4.6325,     13.948,    4.336415e-01
 375,     4.6224,      5.803,    1.705018e-01
 376,     4.6197,     10.753,    2.612268e-01
 377,     4.6040,     13.712,    6.327657e-02
 378,     4.5919,     15.000,    6.173902e-02
 379,     4.5758,     15.000,    9.181085e-02
 380,     4.5657,     15.000,    4.500866e-02
 381,     4.5560,     15.000,    1.008540e-01
 382,     4.5439,     15.000,    1.040529e-01
 383,     4.5302,     13.724,    1.080230e-01
 384,     4.5209,     15.000,    6.475096e-02
 385,     4.5093,     15.000,    9.264620e-02
 386,     4.4957,     15.000,    1.146185e-01
 387,     4.4870,     15.000,    5.718924e-02
 388,     4.4817,     12.452,    1.200191e-01
 389,     4.4682,     15.000,    1.220257e-01
 390,     4.4535,     15.000,    1.407551e-01
 391,     4.4457,     15.000,    1.119396e-01
 392,     4.4371,     15.000,    1.433888e-01
 393,     4.4215,     15.000,    1.008231e-01
 394,     4.4125,     15.000,    6.444728e-02
 395,     4.3890,     15.000,    1.015399e-01
 396,     4.3792,     15.000,    5.189835e-02
 397,     4.3567,     14.264,    3.527048e-01
 398,     4.3510,     15.000,    3.910114e-01
 399,     4.3454,     15.000,    4.168834e-01
 400,     4.3398,     15.000,    4.954742e-01
 401,     4.3265,     15.000,    6.053578e-02
 402,     4.3013,     15.000,    1.374367e-01
 403,     4.2928,     15.000,    9.798047e-02
 404,     4.2834,      8.664,    2.382466e-01
 405,     4.2805,      8.182,    1.896834e-01
 406,     4.2720,      8.588,    3.928163e-01
 407,     4.2694,      6.796,    1.760578e-01
 408,     4.2600,     14.126,    3.463997e-01
 409,     4.2435,     15.000,    7.660503e-02
 410,     4.2272,     15.000,    6.764234e-01
 411,     4.1994,      8.856,    4.996454e-02
 412,     4.1912,     15.000,    7.803988e-02
 413,     4.1860,      5.147,    1.226407e-02
 414,     4.1796,     13.566,    7.397060e-02
 415,     4.1676,     15.000,    7.470954e-02
 416,     4.1572,     15.000,    6.568443e-02
 417,     4.1502,     15.000,    7.373763e-02
 418,     4.1432,     15.000,    9.653120e-02
 419,     4.1295,     15.000,    1.512943e-01
 420,     4.1214,     15.000,    1.014660e-01
 421,     4.1133,     12.507,    1.036211e-01
 422,     4.1046,     15.000,    2.132335e-01
 423,     4.0982,     15.000,    1.380975e-01
 424,     4.0927,     15.000,    1.595025e-01
 425,     4.0626,      3.834,    1.022688e-01
 426,     4.0595,      7.278,    3.369198e-01
 427,     4.0562,      9.532,    8.905402e-01
 428,     4.0532,      9.982,    8.185521e-01
 429,     4.0501,      8.687,    8.988022e-01
 430,     4.0473,      6.378,    4.665560e-01
 431,     4.0440,     14.625,    9.536117e-01
 432,     4.0179,     12.504,    1.540630e-01
 433,     4.0104,     14.476,    2.974070e-01
