index,   freq_ppm,   decay_hz, amplitude
   1,     8.9870,     15.000,    7.212882e-02
   2,     8.9753,     15.000,    8.166698e-02
   3,     8.9583,     15.000,    6.566577e-02
   4,     8.9508,     15.000,    6.559002e-02
   5,     8.9350,     15.000,    7.172698e-02
   6,     8.9237,     15.000,    5.624904e-02
   7,     8.9132,     15.000,    8.008548e-02
   8,     8.9059,     15.000,    5.215364e-02
   9,     8.8993,     11.479,    6.765153e-02
  10,     8.8899,      5.738,    1.963883e-02
  11,     8.8782,     15.000,    8.270614e-02
  12,     8.8676,     15.000,    8.077690e-02
  13,     8.8604,     12.885,    5.060819e-02
  14,     8.8494,     15.000,    3.529058e-02
  15,     8.8358,     15.000,    6.196028e-02
  16,     8.8210,     15.000,    8.075309e-02
  17,     8.8055,     15.000,    8.006234e-02
  18,     8.7918,     15.000,    6.864891e-02
  19,     8.7822,     14.882,    7.753318e-02
  20,     8.7750,     15.000,    1.305309e-01
  21,     8.7568,     15.000,    1.327388e-01
  22,     8.7424,     15.000,    8.610224e-02
  23,     8.7292,     14.672,    8.483507e-02
  24,     8.7209,     15.000,    9.445588e-02
  25,     8.7019,     15.000,    9.171144e-02
  26,     8.6907,     15.000,    6.966534e-02
  27,     8.6826,     14.602,    7.929656e-02
  28,     8.6675,     15.000,    8.280274e-02
  29,     8.6558,     15.000,    8.211558e-02
  30,     8.6351,     15.000,    1.611792e-01
  31,     8.6236,     15.000,    1.101945e-01
  32,     8.6023,     15.000,    1.265142e-01
  33,     8.5862,     14.435,    7.886339e-02
  34,     8.5804,      6.232,    3.490057e-02
  35,     8.5748,     12.240,    8.284998e-02
  36,     8.5689,     14.686,    6.053103e-02
  37,     8.5635,     15.000,    1.212073e-01
  38,     8.5485,     15.000,    1.128395e-01
  39,     8.5365,     15.000,    9.011324e-02
  40,     8.5225,     15.000,    4.919387e-02
  41,     8.5110,     15.000,    7.401896e-02
  42,     8.5011,      4.463,    2.378668e-02
  43,     8.4944,     15.000,    1.504115e-01
  44,     8.4469,      2.450,    1.027123e+00
  45,     8.4456,      1.357,    1.353653e+00
  46,     8.4442,      3.646,    1.743193e+00
  47,     8.4420,     12.859,    8.257166e-01
  48,     8.4341,     15.000,    2.590684e-01
  49,     8.4221,     15.000,    1.382060e-01
  50,     8.4069,     15.000,    1.090840e-01
  51,     8.3965,     15.000,    5.443117e-02
  52,     8.3868,     15.000,    7.002931e-02
  53,     8.3758,     15.000,    8.691490e-02
  54,     8.3660,     15.000,    6.320536e-02
  55,     8.3526,     15.000,    1.175580e-01
  56,     8.3350,     15.000,    1.114228e-01
  57,     8.3204,     15.000,    1.721567e-01
  58,     8.3071,     15.000,    1.419641e-01
  59,     8.2919,     15.000,    9.363551e-02
  60,     8.2823,     15.000,    1.007692e-01
  61,     8.2793,      6.865,    3.948336e-02
  62,     8.2688,     12.002,    6.730644e-02
  63,     8.2598,     10.258,    6.216221e-02
  64,     8.2463,     15.000,    6.837504e-02
  65,     8.2344,     15.000,    1.322983e-01
  66,     8.2223,     15.000,    7.046357e-02
  67,     8.2147,     15.000,    9.523529e-02
  68,     8.2028,     15.000,    8.377330e-02
  69,     8.1924,     14.042,    6.041678e-02
  70,     8.1854,     15.000,    6.303018e-02
  71,     8.1718,     15.000,    6.658610e-02
  72,     8.1526,     15.000,    9.487190e-02
  73,     8.1375,      8.541,    3.610783e-02
  74,     8.1261,     15.000,    8.390681e-02
  75,     8.1171,     15.000,    1.025603e-01
  76,     8.1050,     15.000,    4.679229e-02
  77,     8.0988,     15.000,    1.011978e-01
  78,     8.0846,     14.942,    8.419090e-02
  79,     8.0748,     15.000,    9.546456e-02
  80,     8.0669,      6.748,    3.555975e-02
  81,     8.0521,     15.000,    7.180767e-02
  82,     8.0405,     14.906,    4.834747e-02
  83,     8.0314,     14.980,    4.820875e-02
  84,     8.0218,     14.117,    8.429955e-02
  85,     8.0114,     15.000,    7.572149e-02
  86,     8.0030,     14.547,    5.746878e-02
  87,     7.9938,     15.000,    5.556200e-02
  88,     7.9832,     14.720,    5.987191e-02
  89,     7.9721,     15.000,    6.178433e-02
  90,     7.9579,     13.895,    6.814712e-02
  91,     7.9496,     15.000,    6.586043e-02
  92,     7.9288,      3.987,    1.710612e-02
  93,     7.9242,     15.000,    1.005877e-01
  94,     7.9079,     15.000,    8.385395e-02
  95,     7.8945,     15.000,    8.890837e-02
  96,     7.8848,     10.452,    5.009080e-02
  97,     7.8763,     15.000,    8.434065e-02
  98,     7.8609,     15.000,    8.486682e-02
  99,     7.8485,     15.000,    5.295301e-02
 100,     7.8362,     15.000,    1.039182e-01
 101,     7.8195,     15.000,    8.595818e-02
 102,     7.7935,     15.000,    7.914059e-02
 103,     7.7741,     15.000,    1.042682e-01
 104,     7.7537,     15.000,    8.883380e-02
 105,     7.7364,     15.000,    7.213237e-02
 106,     7.7258,     15.000,    1.039325e-01
 107,     7.7221,     15.000,    9.093578e-02
 108,     7.7022,     15.000,    7.002731e-02
 109,     7.6915,     15.000,    7.435834e-02
 110,     7.6778,     15.000,    5.993779e-02
 111,     7.6647,     15.000,    4.491860e-02
 112,     7.6472,     13.583,    6.281354e-02
 113,     7.6364,     15.000,    9.064391e-02
 114,     7.6237,     15.000,    7.720102e-02
 115,     7.6165,      3.736,    1.363639e-02
 116,     7.6111,     14.446,    8.209319e-02
 117,     7.5963,     15.000,    7.956043e-02
 118,     7.5871,     15.000,    5.579660e-02
 119,     7.5744,     15.000,    8.696776e-02
 120,     7.5643,     15.000,    1.556163e-01
 121,     7.5350,      3.536,    3.722833e-01
 122,     7.5336,      7.003,    1.300185e+00
 123,     7.5252,      4.481,    4.476075e-01
 124,     7.5240,      8.230,    1.384630e+00
 125,     7.5050,     15.000,    1.152917e-01
 126,     7.4836,     15.000,    1.344312e-01
 127,     7.4639,      8.041,    3.897722e-02
 128,     7.4578,     15.000,    7.284832e-02
 129,     7.4489,     15.000,    6.052585e-02
 130,     7.4433,      9.934,    6.100764e-02
 131,     7.4328,      5.953,    3.825753e-02
 132,     7.4235,     11.036,    4.604182e-02
 133,     7.4151,     13.954,    6.732687e-02
 134,     7.4071,     15.000,    8.876821e-02
 135,     7.3944,     15.000,    7.400884e-02
 136,     7.3842,     15.000,    1.035835e-01
 137,     7.3654,     15.000,    1.001847e-01
 138,     7.3393,     15.000,    8.755645e-02
 139,     7.3124,     15.000,    1.107320e-01
 140,     7.2845,     15.000,    9.668725e-02
 141,     7.2589,     15.000,    8.276238e-02
 142,     7.2368,     15.000,    8.058012e-02
 143,     7.2290,     15.000,    9.385610e-02
 144,     7.2180,     10.207,    7.835699e-02
 145,     7.2106,      9.879,    4.229053e-02
 146,     7.2000,     15.000,    5.367582e-02
 147,     7.1903,     15.000,    9.021133e-02
 148,     7.1815,      6.607,    4.483495e-02
 149,     7.1708,     13.567,    8.251198e-02
 150,     7.1638,     14.032,    8.363912e-02
 151,     7.1580,     13.910,    3.827772e-02
 152,     7.1502,     12.568,    8.678363e-02
 153,     7.1375,     15.000,    7.273392e-02
 154,     7.1306,     15.000,    5.936493e-02
 155,     7.1202,     13.369,    7.997818e-02
 156,     7.1125,      5.759,    2.331034e-02
 157,     7.1068,      6.373,    4.122293e-02
 158,     7.0970,     15.000,    1.076870e-01
 159,     7.0807,     13.991,    1.853387e-01
 160,     7.0611,     15.000,    1.098106e-01
 161,     7.0368,     15.000,    1.119390e-01
 162,     6.9995,     15.000,    1.345142e-01
 163,     6.9856,     15.000,    1.059472e-01
 164,     6.9646,     15.000,    9.702263e-02
 165,     6.9560,      5.771,    3.727262e-02
 166,     6.9460,     13.141,    8.439674e-02
 167,     6.9394,      7.540,    1.372669e-02
 168,     6.9349,      8.879,    5.918340e-02
 169,     6.9265,     15.000,    7.523561e-02
 170,     6.9073,     15.000,    1.133828e-01
 171,     6.8887,     15.000,    8.505177e-02
 172,     6.8771,     15.000,    6.364905e-02
 173,     6.8656,     15.000,    5.338410e-02
 174,     6.8528,     15.000,    7.595789e-02
 175,     6.8379,     15.000,    1.027607e-01
 176,     6.8178,     15.000,    7.839353e-02
 177,     6.8059,     15.000,    7.047975e-02
 178,     6.7901,     15.000,    1.121012e-01
 179,     6.7634,     15.000,    7.761869e-02
 180,     6.7459,     15.000,    6.950216e-02
 181,     6.7240,     15.000,    8.075766e-02
 182,     6.7172,     15.000,    7.462482e-02
 183,     6.6983,     15.000,    8.999591e-02
 184,     6.6723,     15.000,    7.949694e-02
 185,     6.6581,     15.000,    6.164135e-02
 186,     6.6419,     15.000,    6.843356e-02
 187,     6.6274,     15.000,    8.453204e-02
 188,     6.6166,     15.000,    1.175222e-01
 189,     6.5997,     15.000,    1.064893e-01
 190,     6.5901,     15.000,    8.602362e-02
 191,     6.5824,     15.000,    8.662017e-02
 192,     6.5682,     15.000,    9.122032e-02
 193,     6.5548,     15.000,    9.576707e-02
 194,     6.5451,     15.000,    7.191067e-02
 195,     6.5335,     15.000,    1.223139e-01
 196,     6.5213,     15.000,    1.082099e-01
 197,     6.5089,     15.000,    9.762278e-02
 198,     6.4986,     15.000,    6.019054e-02
 199,     6.4860,      8.413,    4.648126e-02
 200,     6.4784,     10.622,    2.712931e-02
 201,     6.4719,     14.152,    8.760430e-02
 202,     6.4619,      8.884,    4.128473e-02
 203,     6.4538,     15.000,    1.083319e-01
 204,     6.4421,      9.940,    4.517603e-02
 205,     6.4361,     12.912,    5.787732e-02
 206,     6.4264,     15.000,    9.129377e-02
 207,     6.4189,     11.620,    6.001092e-02
 208,     6.4077,     15.000,    7.034110e-02
 209,     6.3910,     15.000,    7.653580e-02
 210,     6.3830,     15.000,    8.952432e-02
 211,     6.3720,     15.000,    6.853232e-02
 212,     6.3625,     15.000,    1.345423e-01
 213,     6.3517,      6.747,    3.323169e-02
 214,     6.3486,     10.059,    4.067404e-02
 215,     6.3439,     10.562,    6.763657e-02
 216,     6.3352,      7.122,    2.505603e-02
 217,     6.3258,     15.000,    9.606127e-02
 218,     6.3101,     15.000,    9.998100e-02
 219,     6.2941,     15.000,    1.415815e-01
 220,     6.2733,     15.000,    1.054922e-01
 221,     6.2618,     15.000,    1.011665e-01
 222,     6.2468,     15.000,    9.440047e-02
 223,     6.2393,     15.000,    7.927731e-02
 224,     6.2237,     15.000,    8.265402e-02
 225,     6.2139,     15.000,    7.198584e-02
 226,     6.2063,     15.000,    6.528165e-02
 227,     6.1942,     15.000,    6.575978e-02
 228,     6.1855,     15.000,    9.974924e-02
 229,     6.1673,     15.000,    9.853472e-02
 230,     6.1433,     15.000,    7.947290e-02
 231,     6.1334,     15.000,    7.939952e-02
 232,     6.1211,     15.000,    9.821170e-02
 233,     6.1117,     15.000,    6.422950e-02
 234,     6.0990,     15.000,    4.469816e-02
 235,     6.0918,     15.000,    7.786429e-02
 236,     6.0747,     15.000,    8.445709e-02
 237,     6.0614,     15.000,    6.280560e-02
 238,     6.0496,     15.000,    7.223643e-02
 239,     6.0254,     15.000,    7.796575e-02
 240,     6.0046,     15.000,    9.002249e-02
 241,     5.9925,     15.000,    8.287507e-02
 242,     5.9748,     15.000,    1.204690e-01
 243,     5.9543,     13.840,    3.988189e-02
 244,     5.9459,     15.000,    6.922372e-02
 245,     5.9392,      7.419,    2.576553e-02
 246,     5.9303,     15.000,    5.691789e-02
 247,     5.9132,     15.000,    7.954396e-02
 248,     5.8984,      9.598,    7.172697e-02
 249,     5.8904,     10.198,    6.900206e-02
 250,     5.8853,      5.029,    2.966256e-02
 251,     5.8773,     10.049,    3.046469e-02
 252,     5.8650,     15.000,    8.304137e-02
 253,     5.8448,     15.000,    1.217786e-01
 254,     5.8319,     15.000,    8.157196e-02
 255,     5.7985,      3.797,    4.096003e-01
 256,     5.7971,      6.916,    1.233321e+00
 257,     5.7881,      7.980,    1.826760e+00
 258,     5.7758,     15.000,    1.144051e-01
 259,     5.7466,     15.000,    1.523100e-01
 260,     5.7231,     13.864,    8.322497e-02
 261,     5.7113,     15.000,    3.944108e-02
 262,     5.7024,     12.918,    2.953082e-02
 263,     5.6963,      7.587,    2.801244e-02
 264,     5.6873,     15.000,    5.982627e-02
 265,     5.6762,     12.414,    1.058825e-01
 266,     5.6672,     10.949,    4.029387e-02
 267,     5.6593,     12.723,    7.112291e-02
 268,     5.6505,      7.965,    4.210848e-02
 269,     5.6443,     15.000,    9.727347e-02
 270,     5.6308,     15.000,    1.012378e-01
 271,     5.6152,     15.000,    1.245381e-01
 272,     5.6002,     15.000,    1.074602e-01
 273,     5.5797,     15.000,    1.074936e-01
 274,     5.5630,     15.000,    8.612380e-02
 275,     5.5518,     11.802,    7.128660e-02
 276,     5.5464,      4.251,    1.708940e-02
 277,     5.5376,     15.000,    9.860353e-02
 278,     5.5265,     15.000,    5.097194e-02
 279,     5.5199,      7.592,    3.327167e-02
 280,     5.5038,     15.000,    1.231317e-01
 281,     5.4893,     15.000,    1.267431e-01
 282,     5.4707,     15.000,    1.275824e-01
 283,     5.4559,     15.000,    1.228543e-01
 284,     5.4261,     15.000,    8.276679e-02
 285,     5.4114,     15.000,    8.498071e-02
 286,     5.3963,     15.000,    1.138493e-01
 287,     5.3805,     15.000,    8.580662e-02
 288,     5.3655,     15.000,    8.687177e-02
 289,     5.3555,     15.000,    1.045659e-01
 290,     5.3385,     15.000,    1.021255e-01
 291,     5.3182,     15.000,    1.560386e-01
 292,     5.3104,     15.000,    1.693992e-01
 293,     5.3043,     15.000,    1.506440e-01
 294,     5.2968,     14.964,    1.011165e-01
 295,     5.2894,     15.000,    1.236714e-01
 296,     5.2729,     15.000,    1.078673e-01
 297,     5.2639,     15.000,    8.875660e-02
 298,     5.2449,     15.000,    7.630458e-02
 299,     5.2307,     15.000,    1.084776e-01
 300,     5.2121,     15.000,    5.145872e-02
 301,     5.2013,     14.045,    9.865355e-02
 302,     5.1931,     15.000,    1.159391e-01
 303,     5.1828,     15.000,    7.445297e-02
 304,     5.1687,     15.000,    9.796168e-02
 305,     5.1569,     15.000,    8.471490e-02
 306,     5.1450,     15.000,    9.856797e-02
 307,     5.1370,      5.378,    2.031102e-02
 308,     5.1304,      8.717,    3.112546e-02
 309,     5.1228,     15.000,    1.068016e-01
 310,     5.1124,     15.000,    8.716536e-02
 311,     5.1028,     15.000,    6.902297e-02
 312,     5.0918,     15.000,    1.199722e-01
 313,     5.0785,     15.000,    1.306430e-01
 314,     5.0698,     15.000,    1.173342e-01
 315,     5.0617,     15.000,    9.229729e-02
 316,     5.0520,     15.000,    6.996050e-02
 317,     5.0358,     15.000,    9.999649e-02
 318,     5.0242,     15.000,    9.239433e-02
 319,     5.0156,     15.000,    1.270844e-01
 320,     5.0054,     15.000,    1.192486e-01
 321,     4.9956,     15.000,    9.496340e-02
 322,     4.9839,     15.000,    6.794165e-02
 323,     4.9695,     15.000,    1.124036e-01
 324,     4.9635,     15.000,    1.396657e-01
 325,     4.9530,     15.000,    6.937835e-02
 326,     4.9430,      8.595,    6.298679e-02
 327,     4.9286,     15.000,    9.654513e-02
 328,     4.9192,     15.000,    8.084834e-02
 329,     4.9104,     12.874,    4.262507e-02
 330,     4.9006,     15.000,    4.379984e-02
 331,     4.8916,      8.278,    2.764672e-02
 332,     4.8827,     15.000,    1.055581e-01
 333,     4.8766,     14.532,    7.325572e-02
 334,     4.8700,      8.921,    3.817551e-02
 335,     4.8656,     14.522,    7.389890e-02
 336,     4.8592,     12.494,    8.926997e-02
 337,     4.8519,     15.000,    1.135670e-01
 338,     4.8414,     15.000,    1.061678e-01
 339,     4.8309,     15.000,    7.333022e-01
 340,     4.8235,     15.000,    7.655452e-01
 341,     4.8151,     15.000,    8.103703e-01
 342,     4.8070,     15.000,    7.282238e-01
 343,     4.7992,     15.000,    7.498290e-01
 344,     4.7878,     15.000,    9.129295e-01
 345,     4.7757,     15.000,    1.527886e+00
 346,     4.7639,     15.000,    1.259021e+00
 347,     4.7533,     15.000,    1.220668e+00
 348,     4.7415,     15.000,    1.193241e+00
 349,     4.7297,     15.000,    1.219994e+00
 350,     4.7214,     15.000,    8.874282e-02
 351,     4.7061,     15.000,    1.080212e-01
 352,     4.6930,     15.000,    1.482897e-01
 353,     4.6738,     15.000,    9.132650e-02
 354,     4.6642,     15.000,    6.748798e-02
 355,     4.6544,     15.000,    6.943010e-02
 356,     4.6404,     13.394,    6.390400e-02
 357,     4.6332,     11.012,    5.619131e-02
 358,     4.6305,      5.822,    2.889397e-02
 359,     4.6241,      9.157,    5.266633e-02
 360,     4.6169,     10.584,    1.492318e-01
 361,     4.6123,     11.349,    7.031671e-02
 362,     4.6008,      7.963,    3.041534e-02
 363,     4.5954,     12.412,    3.897029e-02
 364,     4.5876,     15.000,    8.576454e-02
 365,     4.5768,     15.000,    1.193637e-01
 366,     4.5659,     15.000,    9.997328e-02
 367,     4.5491,     10.118,    2.156262e-01
 368,     4.5316,     15.000,    1.101416e-01
 369,     4.5172,     15.000,    7.582004e-02
 370,     4.5004,     15.000,    1.311151e-01
 371,     4.4931,      6.389,    2.579692e-02
 372,     4.4870,      6.689,    2.488778e-02
 373,     4.4753,      6.517,    1.000001e-01
 374,     4.4721,     11.519,    2.330565e-01
 375,     4.4583,     15.000,    6.024725e-01
 376,     4.4428,     15.000,    2.203939e-01
 377,     4.4297,     15.000,    1.986050e-01
 378,     4.4131,     15.000,    1.550553e-01
 379,     4.3673,      9.054,    1.940943e-01
 380,     4.3598,      6.898,    1.692622e-01
 381,     4.3581,      8.858,    9.305004e-02
 382,     4.3530,      5.927,    9.705909e-02
 383,     4.3451,      7.878,    1.916928e-01
 384,     4.3261,     15.000,    2.868938e-01
 385,     4.3173,     15.000,    1.997439e-01
 386,     4.3115,     15.000,    1.253373e-01
 387,     4.3052,     15.000,    3.095741e-01
 388,     4.3003,     15.000,    3.638767e-01
 389,     4.2953,     15.000,    2.493370e-01
 390,     4.2895,     15.000,    1.642809e-01
 391,     4.2777,      8.001,    4.160951e-02
 392,     4.2725,      5.323,    5.051768e-02
 393,     4.2655,      9.753,    1.423832e-01
 394,     4.2604,     10.786,    1.165464e-01
 395,     4.2531,     13.125,    1.569065e-01
 396,     4.2440,     15.000,    1.105140e-01
 397,     4.2330,     10.475,    8.446421e-02
 398,     4.2166,      8.879,    2.306761e-01
 399,     4.2130,      9.887,    2.792837e-01
 400,     4.2039,      9.101,    2.528391e-01
 401,     4.2005,     10.396,    3.115317e-01
 402,     4.1749,      7.445,    2.617036e-01
 403,     4.1678,      9.435,    3.822702e-01
 404,     4.1636,      7.484,    2.582785e-01
 405,     4.1564,      9.293,    4.097329e-01
 406,     4.1433,     15.000,    6.109607e-02
 407,     4.1223,     15.000,    2.124705e-01
 408,     4.1164,     13.938,    2.994751e-01
 409,     4.1111,     13.906,    1.354467e-01
 410,     4.1029,      9.259,    9.262016e-02
 411,     4.0968,      7.599,    4.612543e-02
 412,     4.0929,     12.469,    1.127892e-01
 413,     4.0628,      5.224,    2.560425e-01
 414,     4.0592,      9.907,    7.394291e-01
 415,     4.0560,      9.952,    1.365551e+00
 416,     4.0532,      9.389,    8.312448e-01
 417,     4.0501,     14.971,    2.507859e+00
 418,     4.0445,     14.952,    1.047758e+00
 419,     4.0144,      5.770,    1.427995e+00
 420,     4.0130,      7.152,    2.258921e+00
 421,     4.0087,      9.486,    4.807639e+00
 422,     4.0041,      9.022,    4.371981e+00
 423,     3.9990,      8.689,    4.249447e+00
 424,     3.9546,     15.000,    7.352761e-01
 425,     3.9421,     10.025,    6.911696e-02
 426,     3.9145,     15.000,    2.031279e-01
 427,     3.9003,     11.355,    4.691236e-02
 428,     3.8943,      9.571,    1.139828e-01
 429,     3.8791,     11.987,    4.118003e-01
 430,     3.8751,     15.000,    5.728918e-01
 431,     3.8687,     10.366,    9.124368e-02
 432,     3.8610,     10.686,    1.286463e-01
 433,     3.8565,      9.721,    1.016768e-01
