index,   freq_ppm,   decay_hz, amplitude
   1,     8.9820,     15.000,    8.115569e-02
   2,     8.9709,     15.000,    9.142079e-02
   3,     8.9608,      0.059,    5.397126e-03
   4,     8.9596,     15.000,    7.168891e-02
   5,     8.9384,     15.000,    1.076997e-01
   6,     8.9233,     15.000,    6.852834e-02
   7,     8.9134,     15.000,    1.063767e-01
   8,     8.9036,     15.000,    8.619040e-02
   9,     8.8939,     13.961,    6.727859e-02
  10,     8.8836,     15.000,    9.065808e-02
  11,     8.8746,     14.455,    5.429139e-02
  12,     8.8630,      8.477,    4.655941e-02
  13,     8.8552,      9.303,    3.660770e-02
  14,     8.8463,      6.816,    3.358522e-02
  15,     8.8393,     15.000,    4.723565e-02
  16,     8.8250,     12.670,    5.026584e-02
  17,     8.8146,     13.034,    6.762669e-02
  18,     8.8067,     11.504,    4.699220e-02
  19,     8.8010,      9.779,    3.804587e-02
  20,     8.7936,     15.000,    7.087480e-02
  21,     8.7822,     15.000,    1.142430e-01
  22,     8.7705,     15.000,    1.219886e-01
  23,     8.7549,     15.000,    8.648754e-02
  24,     8.7469,     15.000,    8.636047e-02
  25,     8.7367,     15.000,    1.070413e-01
  26,     8.7258,      7.862,    4.413832e-02
  27,     8.7210,     14.147,    6.573167e-02
  28,     8.7122,     10.864,    4.783195e-02
  29,     8.7057,      6.975,    3.431460e-02
  30,     8.6974,     15.000,    9.379218e-02
  31,     8.6643,     15.000,    7.510996e-02
  32,     8.6483,     15.000,    9.785433e-02
  33,     8.6316,     15.000,    8.422003e-02
  34,     8.6072,     15.000,    1.019608e-01
  35,     8.5864,     15.000,    8.549642e-02
  36,     8.5649,     15.000,    1.034353e-01
  37,     8.5550,      8.954,    2.184307e-02
  38,     8.5489,     15.000,    4.358723e-02
  39,     8.5421,     11.437,    5.473921e-02
  40,     8.5321,     11.935,    6.540523e-02
  41,     8.5199,     15.000,    1.149285e-01
  42,     8.5052,     15.000,    1.169354e-01
  43,     8.4862,     15.000,    7.248349e-02
  44,     8.4466,      1.813,    1.363245e-01
  45,     8.4453,      5.988,    1.216911e+00
  46,     8.4343,     15.000,    1.003209e-01
  47,     8.4247,     15.000,    1.053986e-01
  48,     8.4195,     14.573,    8.292269e-02
  49,     8.4134,      9.828,    3.443417e-02
  50,     8.4062,     12.239,    8.203445e-02
  51,     8.3971,     15.000,    9.961645e-02
  52,     8.3876,      7.953,    3.922573e-02
  53,     8.3821,     10.111,    5.603251e-02
  54,     8.3759,      3.788,    1.907917e-02
  55,     8.3695,      8.855,    6.501835e-02
  56,     8.3649,      5.956,    2.014517e-02
  57,     8.3593,      5.589,    2.713439e-02
  58,     8.3484,     15.000,    5.689219e-02
  59,     8.3394,     15.000,    8.751181e-02
  60,     8.3252,     15.000,    9.467910e-02
  61,     8.3192,      7.494,    5.306963e-02
  62,     8.3117,      9.227,    8.322600e-02
  63,     8.3051,     14.780,    5.706962e-02
  64,     8.2980,      6.923,    4.809106e-02
  65,     8.2923,      9.487,    4.341397e-02
  66,     8.2856,     15.000,    8.791248e-02
  67,     8.2700,     12.861,    6.442251e-02
  68,     8.2641,     13.021,    6.123797e-02
  69,     8.2541,     14.023,    8.331554e-02
  70,     8.2445,     15.000,    8.706702e-02
  71,     8.2333,     15.000,    9.856457e-02
  72,     8.2087,     15.000,    8.118219e-02
  73,     8.1891,     15.000,    9.006151e-02
  74,     8.1731,     15.000,    1.104065e-01
  75,     8.1518,     15.000,    1.233742e-01
  76,     8.1412,     15.000,    9.175363e-02
  77,     8.1260,      1.637,    6.713361e-03
  78,     8.1185,     11.648,    7.171733e-02
  79,     8.1121,     12.410,    8.363004e-02
  80,     8.1056,     10.842,    6.315781e-02
  81,     8.0986,      6.188,    2.815971e-02
  82,     8.0866,     15.000,    1.158908e-01
  83,     8.0709,     15.000,    9.604894e-02
  84,     8.0609,     15.000,    7.898418e-02
  85,     8.0477,     15.000,    1.154092e-01
  86,     8.0387,     15.000,    9.544205e-02
  87,     8.0209,     15.000,    8.932966e-02
  88,     8.0120,     15.000,    8.911579e-02
  89,     8.0030,     15.000,    4.115516e-02
  90,     7.9931,     15.000,    6.606531e-02
  91,     7.9765,     15.000,    4.706539e-02
  92,     7.9601,     15.000,    1.197467e-01
  93,     7.9443,     15.000,    5.810423e-02
  94,     7.9312,     15.000,    6.943618e-02
  95,     7.9137,     15.000,    1.048224e-01
  96,     7.9028,     15.000,    8.235496e-02
  97,     7.8873,     15.000,    1.475324e-01
  98,     7.8674,     15.000,    1.064160e-01
  99,     7.8586,     15.000,    8.363704e-02
 100,     7.8405,     15.000,    1.120303e-01
 101,     7.8229,      7.892,    5.465628e-02
 102,     7.8162,     11.562,    4.545954e-02
 103,     7.8115,      6.186,    4.060751e-02
 104,     7.8060,      2.800,    1.560117e-02
 105,     7.8029,      6.679,    2.072159e-02
 106,     7.7934,     14.925,    7.017718e-02
 107,     7.7839,     12.185,    6.712763e-02
 108,     7.7780,     13.102,    4.607476e-02
 109,     7.7708,     13.022,    7.913075e-02
 110,     7.7647,      9.641,    1.335574e-02
 111,     7.7568,     15.000,    6.878112e-02
 112,     7.7448,     15.000,    8.550159e-02
 113,     7.7368,      3.548,    1.801783e-03
 114,     7.7330,     14.136,    6.575801e-02
 115,     7.7240,     15.000,    6.462415e-02
 116,     7.6987,     15.000,    8.555461e-02
 117,     7.6826,     15.000,    5.421176e-02
 118,     7.6715,     15.000,    7.122242e-02
 119,     7.6574,     15.000,    8.502479e-02
 120,     7.6345,     15.000,    6.403989e-02
 121,     7.6234,     15.000,    9.948637e-02
 122,     7.6059,     15.000,    8.087144e-02
 123,     7.5924,     15.000,    8.938422e-02
 124,     7.5770,     15.000,    6.432769e-02
 125,     7.5696,     15.000,    6.895559e-02
 126,     7.5616,      6.653,    2.856082e-02
 127,     7.5540,     15.000,    1.041960e-01
 128,     7.5429,      6.451,    2.482263e-02
 129,     7.5404,      4.187,    6.953736e-03
 130,     7.5371,     10.951,    6.648652e-02
 131,     7.5282,     15.000,    1.286086e-01
 132,     7.5086,     15.000,    1.114618e-01
 133,     7.4839,     15.000,    9.940190e-02
 134,     7.4674,     15.000,    1.414776e-01
 135,     7.4475,     15.000,    1.060248e-01
 136,     7.4283,     15.000,    8.501671e-02
 137,     7.4162,     15.000,    1.039507e-01
 138,     7.3884,     15.000,    1.241642e-01
 139,     7.3795,     15.000,    1.205007e-01
 140,     7.3673,     15.000,    1.007976e-01
 141,     7.3557,     15.000,    1.144219e-01
 142,     7.3429,     15.000,    1.429405e-01
 143,     7.3312,     15.000,    1.202858e-01
 144,     7.3144,     15.000,    9.806453e-02
 145,     7.2960,     15.000,    1.355787e-01
 146,     7.2855,     15.000,    7.122038e-02
 147,     7.2785,     15.000,    5.688129e-02
 148,     7.2698,     15.000,    1.256294e-01
 149,     7.2589,     15.000,    7.391576e-02
 150,     7.2487,     15.000,    6.256943e-02
 151,     7.2399,     14.879,    7.362803e-02
 152,     7.2282,      9.717,    4.426131e-02
 153,     7.2209,      2.475,    9.387731e-03
 154,     7.2138,      9.377,    5.098882e-02
 155,     7.2091,      4.966,    2.522328e-02
 156,     7.1995,      8.951,    4.740603e-02
 157,     7.1889,     15.000,    5.143526e-02
 158,     7.1694,     15.000,    1.157530e-01
 159,     7.1544,     15.000,    1.012863e-01
 160,     7.1385,     15.000,    1.100618e-01
 161,     7.1268,     15.000,    8.168900e-02
 162,     7.1188,     15.000,    1.010931e-01
 163,     7.1004,     15.000,    9.031263e-02
 164,     7.0812,     15.000,    2.280416e-01
 165,     7.0689,     15.000,    9.750799e-02
 166,     7.0525,     15.000,    9.072939e-02
 167,     7.0467,     15.000,    6.803487e-02
 168,     7.0366,     15.000,    1.121814e-01
 169,     7.0260,     15.000,    8.127317e-02
 170,     7.0122,     15.000,    1.070184e-01
 171,     6.9994,     15.000,    7.933065e-02
 172,     6.9859,     15.000,    9.198541e-02
 173,     6.9566,     15.000,    7.598770e-02
 174,     6.9430,     15.000,    8.511125e-02
 175,     6.9219,     15.000,    9.852533e-02
 176,     6.9037,     15.000,    8.681729e-02
 177,     6.8917,      6.451,    2.715481e-02
 178,     6.8853,      9.640,    6.701158e-02
 179,     6.8761,     15.000,    5.928030e-02
 180,     6.8646,     15.000,    8.259747e-02
 181,     6.8556,     10.098,    5.962354e-02
 182,     6.8340,     15.000,    8.886681e-02
 183,     6.8205,     15.000,    9.258633e-02
 184,     6.8061,     15.000,    8.710250e-02
 185,     6.7893,     15.000,    6.760524e-02
 186,     6.7791,      9.410,    5.423614e-02
 187,     6.7713,     15.000,    9.331520e-02
 188,     6.7497,     15.000,    8.621689e-02
 189,     6.7313,     15.000,    1.116949e-01
 190,     6.7074,     15.000,    6.630900e-02
 191,     6.6979,     15.000,    6.689145e-02
 192,     6.6855,     15.000,    9.839863e-02
 193,     6.6695,     15.000,    8.819851e-02
 194,     6.6583,     15.000,    8.875271e-02
 195,     6.6477,     12.894,    7.562492e-02
 196,     6.6318,     15.000,    9.950447e-02
 197,     6.6158,     15.000,    1.006837e-01
 198,     6.6050,     15.000,    6.279975e-02
 199,     6.5962,     14.252,    4.673777e-02
 200,     6.5855,     15.000,    7.679945e-02
 201,     6.5745,      6.868,    1.961131e-02
 202,     6.5632,     15.000,    8.707951e-02
 203,     6.5483,     15.000,    8.587576e-02
 204,     6.5356,      7.473,    3.005847e-02
 205,     6.5277,      9.869,    3.464880e-02
 206,     6.5166,     12.014,    6.834845e-02
 207,     6.5093,     13.504,    4.957231e-02
 208,     6.5016,     15.000,    6.815749e-02
 209,     6.4937,     14.803,    7.841713e-02
 210,     6.4806,     15.000,    8.260075e-02
 211,     6.4654,     15.000,    8.115260e-02
 212,     6.4531,     15.000,    7.480170e-02
 213,     6.4327,     15.000,    9.436458e-02
 214,     6.4145,     15.000,    7.757355e-02
 215,     6.4033,     15.000,    7.833453e-02
 216,     6.3935,     15.000,    9.084523e-02
 217,     6.3857,     15.000,    8.038028e-02
 218,     6.3784,     13.663,    8.560232e-02
 219,     6.3636,     13.812,    1.510400e-01
 220,     6.3549,     14.569,    6.800783e-02
 221,     6.3470,     15.000,    4.759986e-02
 222,     6.3317,     15.000,    8.517820e-02
 223,     6.3224,     15.000,    5.879093e-02
 224,     6.3171,     15.000,    8.690617e-02
 225,     6.3079,     15.000,    3.278888e-02
 226,     6.3012,     14.920,    9.634002e-02
 227,     6.2904,     15.000,    1.031807e-01
 228,     6.2804,     14.100,    4.307153e-02
 229,     6.2717,     15.000,    7.588765e-02
 230,     6.2610,      8.338,    5.214024e-02
 231,     6.2514,     14.075,    3.886862e-02
 232,     6.2446,     10.877,    7.142222e-02
 233,     6.2378,     15.000,    3.949548e-02
 234,     6.2215,      7.900,    5.083217e-02
 235,     6.2169,     11.104,    5.898800e-02
 236,     6.2062,     15.000,    5.589657e-02
 237,     6.1948,     15.000,    9.784479e-02
 238,     6.1866,     13.140,    6.151942e-02
 239,     6.1802,      6.054,    3.778262e-02
 240,     6.1756,      5.938,    1.581550e-02
 241,     6.1706,      9.462,    3.749016e-02
 242,     6.1602,      9.066,    5.216007e-02
 243,     6.1531,     15.000,    5.783580e-02
 244,     6.1422,     14.901,    8.530229e-02
 245,     6.1311,     15.000,    7.550117e-02
 246,     6.1180,     15.000,    7.170426e-02
 247,     6.0945,     15.000,    1.055345e-01
 248,     6.0848,     15.000,    8.848784e-02
 249,     6.0710,     15.000,    1.218148e-01
 250,     6.0553,     15.000,    8.207498e-02
 251,     6.0271,     15.000,    1.211531e-01
 252,     6.0095,     15.000,    1.040205e-01
 253,     5.9957,     15.000,    1.007532e-01
 254,     5.9812,     15.000,    1.031182e-01
 255,     5.9669,     15.000,    1.011169e-01
 256,     5.9368,     11.281,    7.613625e-02
 257,     5.9272,     12.138,    3.617354e-02
 258,     5.9188,     15.000,    9.609869e-02
 259,     5.9099,     15.000,    7.787053e-02
 260,     5.9024,     15.000,    7.940280e-02
 261,     5.8765,     15.000,    9.152411e-02
 262,     5.8652,     14.713,    9.164934e-02
 263,     5.8577,      3.863,    2.003445e-02
 264,     5.8504,     12.286,    8.370989e-02
 265,     5.8420,     13.818,    5.888681e-02
 266,     5.8357,     10.257,    7.706182e-02
 267,     5.8267,     15.000,    1.107705e-01
 268,     5.8172,     15.000,    1.103480e-01
 269,     5.8078,     15.000,    1.179450e-01
 270,     5.7960,     15.000,    9.200919e-02
 271,     5.7879,     15.000,    8.196374e-02
 272,     5.7789,      8.924,    3.420330e-02
 273,     5.7609,     15.000,    1.063063e-01
 274,     5.7432,     15.000,    1.315754e-01
 275,     5.7284,     15.000,    1.226627e-01
 276,     5.7095,     15.000,    1.183117e-01
 277,     5.6906,     15.000,    1.198897e-01
 278,     5.6799,     15.000,    1.117329e-01
 279,     5.6701,      4.917,    3.617495e-02
 280,     5.6675,      9.781,    6.180491e-02
 281,     5.6603,     11.828,    9.264825e-02
 282,     5.6551,      7.471,    3.995266e-02
 283,     5.6488,     10.717,    3.482580e-02
 284,     5.6336,     15.000,    1.543729e-01
 285,     5.6219,     15.000,    1.259631e-01
 286,     5.6054,     15.000,    1.600252e-01
 287,     5.5919,     15.000,    1.286084e-01
 288,     5.5802,     15.000,    1.049638e-01
 289,     5.5719,     13.245,    8.373796e-02
 290,     5.5638,     15.000,    1.379844e-01
 291,     5.5522,     15.000,    1.109618e-01
 292,     5.5410,     15.000,    1.113427e-01
 293,     5.5319,     15.000,    1.164299e-01
 294,     5.5150,     14.995,    6.133168e-02
 295,     5.5041,     15.000,    7.689081e-02
 296,     5.4937,     15.000,    1.353541e-01
 297,     5.4843,     15.000,    8.193991e-02
 298,     5.4780,     13.131,    9.715611e-02
 299,     5.4697,     13.213,    1.032069e-01
 300,     5.4603,     15.000,    7.014956e-02
 301,     5.4538,     14.277,    5.819052e-02
 302,     5.4397,     15.000,    8.327878e-02
 303,     5.4303,     13.534,    4.362009e-02
 304,     5.4223,     15.000,    2.806252e-02
 305,     5.4134,     15.000,    8.184435e-02
 306,     5.4009,     15.000,    1.127875e-01
 307,     5.3917,     15.000,    9.427767e-02
 308,     5.3755,     15.000,    1.150407e-01
 309,     5.3634,     15.000,    7.633563e-02
 310,     5.3554,     11.656,    7.720285e-02
 311,     5.3393,     15.000,    9.379314e-02
 312,     5.3303,     15.000,    8.911299e-02
 313,     5.3095,     15.000,    6.918794e-02
 314,     5.2953,     15.000,    1.059719e-01
 315,     5.2763,     15.000,    1.036807e-01
 316,     5.2664,     15.000,    1.350799e-01
 317,     5.2458,     15.000,    8.301325e-02
 318,     5.2331,     15.000,    9.209859e-02
 319,     5.2197,     15.000,    8.120152e-02
 320,     5.1977,     15.000,    7.139814e-02
 321,     5.1839,     15.000,    8.884824e-02
 322,     5.1702,     14.896,    7.434053e-02
 323,     5.1613,     15.000,    8.265163e-02
 324,     5.1393,     15.000,    1.237865e-01
 325,     5.1283,     15.000,    9.972867e-02
 326,     5.1048,     15.000,    9.948921e-02
 327,     5.0921,     14.909,    7.518473e-02
 328,     5.0823,     15.000,    7.072987e-02
 329,     5.0740,     11.222,    4.968210e-02
 330,     5.0646,     15.000,    6.915200e-02
 331,     5.0582,     15.000,    6.513494e-02
 332,     5.0479,     15.000,    6.343175e-02
 333,     5.0383,     15.000,    6.397671e-02
 334,     5.0284,     14.190,    5.601100e-02
 335,     5.0208,     15.000,    1.252739e-01
 336,     5.0113,     15.000,    1.104300e-01
 337,     4.9973,     15.000,    8.658770e-02
 338,     4.9846,     15.000,    8.337359e-02
 339,     4.9716,     15.000,    5.623572e-02
 340,     4.9587,     14.909,    7.276814e-02
 341,     4.9480,     14.466,    5.343626e-02
 342,     4.9406,     15.000,    1.021135e-01
 343,     4.9267,     15.000,    9.519438e-02
 344,     4.9174,     15.000,    1.076130e-01
 345,     4.8994,     15.000,    1.234951e-01
 346,     4.8808,     15.000,    1.210504e-01
 347,     4.8616,     15.000,    1.006590e-01
 348,     4.8395,     15.000,    1.197034e-01
 349,     4.8316,     15.000,    5.625907e-01
 350,     4.8236,     15.000,    5.804923e-01
 351,     4.8166,     15.000,    5.277465e-01
 352,     4.8098,     15.000,    4.772044e-01
 353,     4.8034,     15.000,    5.379272e-01
 354,     4.7971,     15.000,    1.369006e+00
 355,     4.7909,     15.000,    1.418715e+00
 356,     4.7843,     15.000,    1.380076e+00
 357,     4.7784,      0.010,    2.575974e-01
 358,     4.7713,     15.000,    1.498215e+00
 359,     4.7593,     15.000,    1.626389e+00
 360,     4.7506,     15.000,    1.560076e+00
 361,     4.7421,     15.000,    1.626893e+00
 362,     4.7329,     15.000,    1.639995e+00
 363,     4.7243,     15.000,    1.594181e+00
 364,     4.7119,     11.171,    5.239259e-02
 365,     4.7056,     15.000,    4.003055e-02
 366,     4.6945,     14.648,    3.968503e-02
 367,     4.6827,     15.000,    1.016862e-01
 368,     4.6738,     12.180,    8.464181e-02
 369,     4.6659,      2.903,    1.712720e-02
 370,     4.6624,      5.365,    2.257079e-02
 371,     4.6566,      8.212,    3.991301e-02
 372,     4.6495,      5.696,    2.659792e-02
 373,     4.6434,      7.082,    2.927614e-02
 374,     4.6351,      9.674,    3.331923e-02
 375,     4.6272,     14.816,    5.111883e-02
 376,     4.6166,     15.000,    8.173261e-02
 377,     4.6072,     10.322,    5.172212e-02
 378,     4.5950,     10.072,    5.014746e-02
 379,     4.5829,     15.000,    8.281469e-02
 380,     4.5743,     12.271,    4.488583e-02
 381,     4.5662,     15.000,    6.393130e-02
 382,     4.5567,      8.174,    3.717195e-02
 383,     4.5492,     14.914,    1.005832e-01
 384,     4.5348,     15.000,    1.056869e-01
 385,     4.5275,     15.000,    2.827298e-02
 386,     4.5212,     15.000,    8.162005e-02
 387,     4.5069,     15.000,    9.317297e-02
 388,     4.5001,     14.466,    6.523266e-02
 389,     4.4878,     15.000,    1.113392e-01
 390,     4.4744,     15.000,    1.063255e-01
 391,     4.4572,     15.000,    9.489617e-02
 392,     4.4462,     15.000,    1.052979e-01
 393,     4.4360,     14.971,    5.811934e-02
 394,     4.4249,     15.000,    1.018113e-01
 395,     4.4106,     15.000,    9.476927e-02
 396,     4.3851,     15.000,    6.971432e-02
 397,     4.3744,     15.000,    5.746474e-02
 398,     4.3615,     14.995,    8.065580e-02
 399,     4.3447,     14.422,    8.438682e-02
 400,     4.3373,     15.000,    7.872123e-02
 401,     4.3118,     15.000,    8.784690e-02
 402,     4.2969,     15.000,    8.502705e-02
 403,     4.2804,     15.000,    5.995708e-02
 404,     4.2661,     15.000,    5.015549e-02
 405,     4.2532,     15.000,    7.303027e-02
 406,     4.2459,     15.000,    1.856547e-01
 407,     4.2324,     15.000,    2.341389e-01
 408,     4.2127,     15.000,    7.434341e-02
 409,     4.1999,     15.000,    6.599030e-02
 410,     4.1891,     15.000,    7.446172e-02
 411,     4.1792,     14.695,    5.890940e-02
 412,     4.1699,      9.766,    3.407065e-02
 413,     4.1613,     15.000,    7.449852e-02
 414,     4.1509,      6.598,    2.898373e-02
 415,     4.1447,     13.367,    5.704051e-02
 416,     4.1371,     15.000,    1.293642e-01
 417,     4.1317,      8.744,    8.694553e-02
 418,     4.1236,     11.544,    1.090705e-01
 419,     4.1141,     14.734,    1.149939e-01
 420,     4.1086,      9.897,    5.656279e-02
 421,     4.1037,      5.196,    3.228850e-02
 422,     4.0628,      4.722,    9.258941e-01
 423,     4.0592,      8.474,    2.395120e+00
 424,     4.0560,      8.591,    4.301793e+00
 425,     4.0532,      8.427,    2.350083e+00
 426,     4.0503,      8.694,    4.614832e+00
 427,     4.0470,      8.656,    2.631538e+00
 428,     4.0434,      5.776,    1.246370e+00
 429,     4.0293,     15.000,    1.751844e-01
 430,     4.0194,     15.000,    1.241198e-01
 431,     4.0021,     15.000,    6.694312e-02
 432,     3.9716,     15.000,    4.661095e-02
 433,     3.9644,     11.134,    5.383291e-02
