index,   freq_ppm,   decay_hz, amplitude
   1,     8.9917,      6.010,    2.585928e-02
   2,     8.9862,     11.425,    8.348802e-02
   3,     8.9801,      9.256,    4.743540e-02
   4,     8.9716,      9.386,    2.632106e-02
   5,     8.9685,      5.173,    3.254199e-02
   6,     8.9581,     15.000,    5.376960e-02
   7,     8.9482,     15.000,    9.140319e-02
   8,     8.9378,     15.000,    8.941406e-02
   9,     8.9259,     15.000,    8.062169e-02
  10,     8.9077,     15.000,    6.852411e-02
  11,     8.8968,     15.000,    1.061631e-01
  12,     8.8780,     15.000,    1.032797e-01
  13,     8.8680,     12.979,    6.089161e-02
  14,     8.8613,     15.000,    5.017603e-02
  15,     8.8507,      7.956,    5.264876e-02
  16,     8.8409,     11.466,    6.490856e-02
  17,     8.8343,     15.000,    5.975390e-02
  18,     8.8245,      7.205,    4.316925e-02
  19,     8.8151,     15.000,    9.792985e-02
  20,     8.8044,     14.841,    6.485207e-02
  21,     8.7968,      6.916,    4.955182e-02
  22,     8.7829,     15.000,    1.520261e-01
  23,     8.7689,     15.000,    1.328309e-01
  24,     8.7529,     15.000,    1.706985e-01
  25,     8.7385,     15.000,    1.057370e-01
  26,     8.7302,     15.000,    9.337007e-02
  27,     8.7214,     15.000,    1.158779e-01
  28,     8.7124,      3.077,    1.438880e-02
  29,     8.7055,     15.000,    9.177462e-02
  30,     8.6994,     15.000,    1.200122e-01
  31,     8.6911,      9.690,    6.129933e-02
  32,     8.6825,      8.244,    4.826598e-02
  33,     8.6765,     15.000,    1.029171e-01
  34,     8.6623,     15.000,    1.106190e-01
  35,     8.6556,      1.302,    8.612975e-03
  36,     8.6516,     12.596,    8.687887e-02
  37,     8.6453,     15.000,    7.263255e-02
  38,     8.6387,     15.000,    8.278518e-02
  39,     8.6298,     15.000,    4.175436e-02
  40,     8.6150,     15.000,    1.415883e-01
  41,     8.6060,      9.616,    5.824256e-02
  42,     8.5950,     15.000,    8.793242e-02
  43,     8.5874,     15.000,    7.425017e-02
  44,     8.5795,     15.000,    3.601203e-02
  45,     8.5648,     15.000,    2.975471e-01
  46,     8.5532,     14.974,    1.079065e-01
  47,     8.5455,     14.695,    5.042458e-02
  48,     8.5333,     15.000,    6.505878e-02
  49,     8.5199,     15.000,    1.066228e-01
  50,     8.5100,     15.000,    1.016625e-01
  51,     8.5017,      9.080,    3.001883e-02
  52,     8.4973,     12.393,    9.413674e-02
  53,     8.4886,      5.091,    2.950540e-02
  54,     8.4476,      3.764,    3.448417e+00
  55,     8.4463,      1.892,    4.248773e+00
  56,     8.4450,      3.207,    5.355816e+00
  57,     8.4434,      9.844,    2.267033e+00
  58,     8.4361,     15.000,    6.761813e-01
  59,     8.4248,     15.000,    4.255931e-01
  60,     8.4137,     15.000,    4.062733e-01
  61,     8.4090,     15.000,    1.226048e-01
  62,     8.4028,     11.493,    4.931384e-02
  63,     8.3943,     14.571,    1.030872e-01
  64,     8.3813,     10.355,    6.141508e-02
  65,     8.3691,     15.000,    1.344044e-01
  66,     8.3585,     15.000,    1.032504e-01
  67,     8.3503,     15.000,    1.016007e-01
  68,     8.3346,     15.000,    7.326064e-02
  69,     8.3210,     10.338,    2.222585e-01
  70,     8.3039,     15.000,    1.431239e-01
  71,     8.2941,     15.000,    1.554415e-01
  72,     8.2842,     15.000,    9.190881e-02
  73,     8.2700,     15.000,    1.237591e-01
  74,     8.2614,     15.000,    1.111104e-01
  75,     8.2462,     15.000,    1.375098e-01
  76,     8.2368,      9.169,    6.003132e-02
  77,     8.2298,     15.000,    8.852264e-02
  78,     8.2204,     15.000,    1.035213e-01
  79,     8.2021,     15.000,    1.421603e-01
  80,     8.1864,     15.000,    1.059308e-01
  81,     8.1748,     15.000,    6.782314e-02
  82,     8.1559,     15.000,    7.596584e-02
  83,     8.1482,     15.000,    9.188525e-02
  84,     8.1363,     15.000,    7.943966e-02
  85,     8.1217,     15.000,    1.026107e-01
  86,     8.1168,     10.739,    6.367980e-02
  87,     8.1105,      3.800,    3.418324e-02
  88,     8.1051,      8.701,    5.712664e-02
  89,     8.0969,     15.000,    8.567706e-02
  90,     8.0835,     15.000,    8.470213e-02
  91,     8.0727,     15.000,    6.050467e-02
  92,     8.0623,     15.000,    3.492326e-02
  93,     8.0499,     15.000,    7.455497e-02
  94,     8.0398,     15.000,    6.215354e-02
  95,     8.0278,     15.000,    6.656798e-02
  96,     8.0146,     14.446,    9.774259e-02
  97,     8.0013,     15.000,    1.015849e-01
  98,     7.9928,     15.000,    7.460736e-02
  99,     7.9839,     15.000,    6.449720e-02
 100,     7.9724,     13.947,    8.877531e-02
 101,     7.9533,     15.000,    1.228125e-01
 102,     7.9419,     10.219,    7.191542e-02
 103,     7.9325,      8.469,    5.300390e-02
 104,     7.9240,     10.262,    4.808433e-02
 105,     7.9154,     15.000,    8.554693e-02
 106,     7.9053,     15.000,    8.490635e-02
 107,     7.8931,     15.000,    7.347599e-02
 108,     7.8825,     15.000,    1.107428e-01
 109,     7.8642,     15.000,    1.353284e-01
 110,     7.8538,     15.000,    1.440232e-01
 111,     7.8417,     15.000,    9.722089e-02
 112,     7.8298,     15.000,    1.161688e-01
 113,     7.8195,     15.000,    1.071056e-01
 114,     7.8081,     15.000,    7.105127e-02
 115,     7.7988,      9.817,    6.251957e-02
 116,     7.7883,     15.000,    8.532768e-02
 117,     7.7791,     15.000,    1.034378e-01
 118,     7.7695,     15.000,    9.913419e-02
 119,     7.7566,     15.000,    1.494184e-01
 120,     7.7485,     15.000,    9.025477e-02
 121,     7.7385,     15.000,    1.244751e-01
 122,     7.7211,     15.000,    9.700540e-02
 123,     7.7133,     15.000,    9.494932e-02
 124,     7.6986,     15.000,    9.848242e-02
 125,     7.6894,      7.678,    4.868530e-02
 126,     7.6800,     11.739,    9.351241e-02
 127,     7.6688,     15.000,    1.016405e-01
 128,     7.6621,      7.318,    4.407943e-02
 129,     7.6519,     12.632,    9.220615e-02
 130,     7.6424,     15.000,    5.875707e-02
 131,     7.6331,     15.000,    8.928534e-02
 132,     7.6255,     15.000,    6.585474e-02
 133,     7.6107,     15.000,    7.263672e-02
 134,     7.5994,     15.000,    1.011809e-01
 135,     7.5888,     15.000,    9.667472e-02
 136,     7.5760,     15.000,    1.197728e-01
 137,     7.5667,     15.000,    5.271068e-02
 138,     7.5508,     15.000,    8.969215e-02
 139,     7.5425,     15.000,    1.181369e-01
 140,     7.5234,     10.406,    4.526411e-02
 141,     7.5160,      4.682,    2.141435e-02
 142,     7.5086,     15.000,    1.001563e-01
 143,     7.4942,     15.000,    8.335827e-02
 144,     7.4826,     15.000,    8.914728e-02
 145,     7.4737,      8.172,    6.117769e-02
 146,     7.4665,     14.864,    1.226351e-01
 147,     7.4586,      4.373,    9.070411e-03
 148,     7.4552,      6.545,    3.081258e-02
 149,     7.4456,      7.603,    4.182723e-02
 150,     7.4383,      6.818,    6.349668e-02
 151,     7.4340,      7.876,    2.799106e-02
 152,     7.4315,      8.264,    4.667429e-02
 153,     7.4258,      8.116,    4.413537e-02
 154,     7.4176,     15.000,    1.020975e-01
 155,     7.4001,     15.000,    1.241011e-01
 156,     7.3771,     15.000,    9.379984e-02
 157,     7.3649,     15.000,    1.076637e-01
 158,     7.3487,     15.000,    8.031494e-02
 159,     7.3398,     15.000,    8.763745e-02
 160,     7.3280,     15.000,    9.147492e-02
 161,     7.3162,     15.000,    9.866908e-02
 162,     7.3077,     15.000,    6.590238e-02
 163,     7.2971,     15.000,    8.743700e-02
 164,     7.2887,      9.657,    6.346429e-02
 165,     7.2773,     14.207,    1.065768e-01
 166,     7.2642,     15.000,    8.078995e-02
 167,     7.2500,     15.000,    8.772943e-02
 168,     7.2334,     15.000,    9.891694e-02
 169,     7.2236,     15.000,    1.043266e-01
 170,     7.2087,     15.000,    1.518080e-01
 171,     7.2029,     15.000,    9.229740e-02
 172,     7.1932,      4.211,    7.209368e-03
 173,     7.1879,     14.489,    9.796968e-02
 174,     7.1788,     10.707,    6.342164e-02
 175,     7.1750,      0.023,    7.225248e-03
 176,     7.1660,     15.000,    1.225256e-01
 177,     7.1563,     14.822,    7.444002e-02
 178,     7.1497,     15.000,    6.892382e-02
 179,     7.1378,     15.000,    6.292921e-02
 180,     7.1288,     11.489,    7.443281e-02
 181,     7.1202,     15.000,    5.367436e-02
 182,     7.1128,     15.000,    7.094215e-02
 183,     7.1040,     10.246,    4.450629e-02
 184,     7.0915,      9.812,    5.410548e-02
 185,     7.0793,     15.000,    2.359192e-01
 186,     7.0630,     15.000,    1.307712e-01
 187,     7.0527,     15.000,    8.252557e-02
 188,     7.0379,     15.000,    1.105706e-01
 189,     7.0290,     15.000,    3.626730e-02
 190,     7.0194,     13.356,    1.024422e-01
 191,     7.0098,     15.000,    5.884193e-02
 192,     7.0042,      6.424,    2.623126e-02
 193,     6.9931,     14.203,    7.068066e-02
 194,     6.9822,     14.672,    6.056702e-02
 195,     6.9706,     15.000,    1.046086e-01
 196,     6.9627,     15.000,    4.159750e-02
 197,     6.9504,     15.000,    6.195948e-02
 198,     6.9428,      8.136,    4.963563e-02
 199,     6.9326,     15.000,    8.978169e-02
 200,     6.9206,     15.000,    9.026463e-02
 201,     6.9107,     15.000,    8.646325e-02
 202,     6.8941,     15.000,    1.205250e-01
 203,     6.8724,     15.000,    1.135746e-01
 204,     6.8597,     15.000,    9.459531e-02
 205,     6.8386,     15.000,    6.913817e-02
 206,     6.8292,     15.000,    7.831040e-02
 207,     6.8225,     15.000,    1.013236e-01
 208,     6.8133,     15.000,    9.838068e-02
 209,     6.7960,     15.000,    6.351534e-02
 210,     6.7871,     15.000,    8.552929e-02
 211,     6.7706,     13.663,    7.519419e-02
 212,     6.7650,     10.705,    4.026115e-02
 213,     6.7511,     14.562,    6.038238e-02
 214,     6.7451,     15.000,    9.049960e-02
 215,     6.7385,     15.000,    9.292985e-02
 216,     6.7322,     14.014,    5.964158e-02
 217,     6.7150,     15.000,    1.248286e-01
 218,     6.7050,     15.000,    6.772284e-02
 219,     6.6972,     15.000,    1.160970e-01
 220,     6.6884,     15.000,    9.818559e-02
 221,     6.6773,     15.000,    7.289886e-02
 222,     6.6605,     15.000,    1.108239e-01
 223,     6.6500,     15.000,    6.322918e-02
 224,     6.6418,     15.000,    9.436010e-02
 225,     6.6257,     15.000,    1.140063e-01
 226,     6.6185,      9.053,    7.109715e-02
 227,     6.5926,     15.000,    1.120221e-01
 228,     6.5780,     15.000,    8.902766e-02
 229,     6.5632,     15.000,    9.463168e-02
 230,     6.5400,     15.000,    8.892312e-02
 231,     6.5257,     15.000,    1.134995e-01
 232,     6.5067,     15.000,    1.009610e-01
 233,     6.4934,     11.703,    7.092302e-02
 234,     6.4849,      8.756,    2.656365e-02
 235,     6.4765,     14.313,    8.762625e-02
 236,     6.4617,     15.000,    6.696853e-02
 237,     6.4499,     15.000,    9.939524e-02
 238,     6.4402,     10.369,    7.503005e-02
 239,     6.4351,     15.000,    8.811251e-02
 240,     6.4283,      8.525,    3.956569e-02
 241,     6.4203,     15.000,    9.459549e-02
 242,     6.4111,      9.069,    5.743454e-02
 243,     6.4040,     15.000,    1.033791e-01
 244,     6.3914,     15.000,    9.397470e-02
 245,     6.3806,     15.000,    1.262751e-01
 246,     6.3728,     15.000,    1.119160e-01
 247,     6.3630,     14.271,    2.206310e-01
 248,     6.3481,     15.000,    8.554515e-02
 249,     6.3409,     15.000,    1.133535e-01
 250,     6.3317,     15.000,    9.192657e-02
 251,     6.3164,     15.000,    1.122731e-01
 252,     6.3076,     15.000,    1.065848e-01
 253,     6.2951,     15.000,    9.912382e-02
 254,     6.2817,     15.000,    1.155660e-01
 255,     6.2575,     15.000,    1.216103e-01
 256,     6.2453,     15.000,    9.745418e-02
 257,     6.2331,     15.000,    9.624554e-02
 258,     6.2219,     15.000,    1.033753e-01
 259,     6.1863,     15.000,    1.158165e-01
 260,     6.1756,     15.000,    1.358380e-01
 261,     6.1596,     15.000,    1.061717e-01
 262,     6.1490,     15.000,    1.114341e-01
 263,     6.1384,      9.019,    7.886586e-02
 264,     6.1320,      5.405,    3.024744e-02
 265,     6.1256,      4.161,    1.865449e-02
 266,     6.1194,     11.692,    3.565712e-02
 267,     6.1140,     13.012,    6.660175e-02
 268,     6.1043,     15.000,    9.194042e-02
 269,     6.0971,     10.360,    5.299744e-02
 270,     6.0896,     15.000,    3.994868e-02
 271,     6.0802,     15.000,    1.252610e-01
 272,     6.0672,     15.000,    1.188522e-01
 273,     6.0516,     15.000,    6.608146e-02
 274,     6.0390,     15.000,    1.063832e-01
 275,     6.0262,      6.052,    3.807919e-02
 276,     6.0207,      9.628,    4.372002e-02
 277,     6.0144,      5.459,    3.860084e-02
 278,     6.0053,     15.000,    1.382172e-01
 279,     5.9980,     10.700,    8.264742e-02
 280,     5.9934,     15.000,    1.577351e-01
 281,     5.9754,     15.000,    1.314410e-01
 282,     5.9492,     15.000,    1.004544e-01
 283,     5.9297,     15.000,    1.034512e-01
 284,     5.9147,     15.000,    1.293235e-01
 285,     5.9007,     15.000,    1.196834e-01
 286,     5.8548,     15.000,    1.169347e-01
 287,     5.8350,     15.000,    1.622009e-01
 288,     5.8118,     15.000,    1.399210e-01
 289,     5.7928,     15.000,    1.002976e-01
 290,     5.7822,     15.000,    1.102132e-01
 291,     5.7672,     15.000,    1.533744e-01
 292,     5.7463,     15.000,    1.658617e-01
 293,     5.7288,      9.279,    5.433543e-02
 294,     5.7215,     15.000,    9.417155e-02
 295,     5.7143,      4.305,    1.618754e-02
 296,     5.7083,     15.000,    8.669300e-02
 297,     5.6880,     15.000,    1.238014e-01
 298,     5.6751,     15.000,    1.104622e-01
 299,     5.6634,     15.000,    5.602246e-02
 300,     5.6538,     15.000,    9.107829e-02
 301,     5.6400,     14.855,    1.092911e-01
 302,     5.6244,     15.000,    8.657177e-02
 303,     5.6146,     15.000,    5.150929e-02
 304,     5.6020,     15.000,    9.661326e-02
 305,     5.5949,      7.998,    5.421809e-02
 306,     5.5873,     14.915,    5.859143e-02
 307,     5.5733,     15.000,    7.582218e-02
 308,     5.5626,     15.000,    1.078859e-01
 309,     5.5465,      5.876,    2.923913e-02
 310,     5.5413,      2.696,    1.603505e-02
 311,     5.5367,     11.201,    6.862244e-02
 312,     5.5286,     15.000,    1.187843e-01
 313,     5.5074,     15.000,    8.920173e-02
 314,     5.5017,     15.000,    1.073003e-01
 315,     5.4899,     15.000,    1.142906e-01
 316,     5.4808,     15.000,    7.675102e-02
 317,     5.4708,     15.000,    1.372265e-01
 318,     5.4581,     15.000,    1.216400e-01
 319,     5.4480,     15.000,    1.078173e-01
 320,     5.4381,     15.000,    1.441750e-01
 321,     5.4291,     15.000,    1.309451e-01
 322,     5.4123,     15.000,    1.891194e-01
 323,     5.4003,     15.000,    1.871312e-01
 324,     5.3780,     15.000,    1.204669e-01
 325,     5.3684,     15.000,    1.585756e-01
 326,     5.3586,     14.915,    1.274643e-01
 327,     5.3462,     14.872,    4.696442e-02
 328,     5.3400,     15.000,    1.266236e-01
 329,     5.3312,     14.053,    6.556144e-02
 330,     5.3257,     12.877,    1.127803e-01
 331,     5.3159,     15.000,    8.200245e-02
 332,     5.3076,     15.000,    8.263291e-02
 333,     5.3028,      4.166,    1.782848e-02
 334,     5.2953,      4.493,    2.034086e-02
 335,     5.2915,     15.000,    9.674005e-02
 336,     5.2832,     15.000,    1.049493e-01
 337,     5.2765,     15.000,    8.468150e-02
 338,     5.2686,     15.000,    1.470933e-01
 339,     5.2587,     14.752,    1.187445e-01
 340,     5.2491,     15.000,    1.102695e-01
 341,     5.2432,     12.419,    6.190127e-02
 342,     5.2247,     15.000,    9.600471e-02
 343,     5.2142,     15.000,    1.505148e-01
 344,     5.2047,     15.000,    1.250564e-01
 345,     5.1990,      4.809,    3.316869e-02
 346,     5.1858,     15.000,    1.283877e-01
 347,     5.1711,     15.000,    9.538969e-02
 348,     5.1617,     15.000,    7.448484e-02
 349,     5.1428,     15.000,    7.288013e-02
 350,     5.1315,     14.978,    5.983279e-02
 351,     5.1208,     15.000,    7.187628e-02
 352,     5.1043,     15.000,    1.020511e-01
 353,     5.0872,     15.000,    1.324165e-01
 354,     5.0773,     15.000,    1.010625e-01
 355,     5.0590,     15.000,    1.063014e-01
 356,     5.0267,     15.000,    1.239844e-01
 357,     5.0102,     15.000,    1.183803e-01
 358,     4.9946,     15.000,    1.315221e-01
 359,     4.9733,     15.000,    7.757680e-02
 360,     4.9623,     15.000,    1.205325e-01
 361,     4.9490,     15.000,    1.205146e-01
 362,     4.9392,     15.000,    9.524916e-02
 363,     4.9295,     15.000,    8.671795e-02
 364,     4.9197,     14.985,    1.066325e-01
 365,     4.9066,     15.000,    1.788317e+00
 366,     4.8888,     15.000,    1.813252e+00
 367,     4.8670,     15.000,    1.883343e+00
 368,     4.8470,     15.000,    1.878013e+00
 369,     4.8232,     15.000,    1.839788e+00
 370,     4.8038,     15.000,    1.767061e+00
 371,     4.7782,      4.532,    3.328328e+00
 372,     4.7726,     15.000,    1.582808e+00
 373,     4.7640,     15.000,    1.621491e+00
 374,     4.7547,     15.000,    1.533713e+00
 375,     4.7446,     15.000,    1.485091e+00
 376,     4.7288,     15.000,    1.706396e-01
 377,     4.7165,     15.000,    1.174578e-01
 378,     4.7047,     15.000,    1.245004e-01
 379,     4.6819,     15.000,    1.246466e-01
 380,     4.6684,     15.000,    8.054175e-02
 381,     4.6415,     15.000,    1.016258e-01
 382,     4.6301,     15.000,    5.763116e-02
 383,     4.6169,      5.615,    2.423039e-02
 384,     4.6120,      6.834,    4.417389e-02
 385,     4.6054,     15.000,    5.204483e-02
 386,     4.5901,     15.000,    1.030177e-01
 387,     4.5809,     15.000,    8.032746e-02
 388,     4.5706,     15.000,    9.969016e-02
 389,     4.5579,     15.000,    9.410518e-02
 390,     4.5468,     15.000,    1.240176e-01
 391,     4.5397,     15.000,    8.627765e-02
 392,     4.5300,     10.724,    5.226978e-02
 393,     4.5248,      5.689,    2.727813e-02
 394,     4.5149,     15.000,    9.368568e-02
 395,     4.5045,     15.000,    1.221407e-01
 396,     4.4923,     13.234,    1.149355e-01
 397,     4.4881,      9.901,    7.089055e-02
 398,     4.4765,     10.733,    3.978716e-02
 399,     4.4705,      4.502,    2.198171e-02
 400,     4.4638,     13.656,    5.741019e-02
 401,     4.4507,     15.000,    9.293923e-02
 402,     4.4402,     15.000,    7.366905e-02
 403,     4.4318,     15.000,    5.927705e-02
 404,     4.4206,     15.000,    1.296979e-01
 405,     4.4072,     15.000,    9.693011e-02
 406,     4.3974,     15.000,    9.110882e-02
 407,     4.3833,     15.000,    7.288327e-02
 408,     4.3706,     15.000,    8.024035e-02
 409,     4.3548,     15.000,    1.029950e-01
 410,     4.3419,     15.000,    1.178261e-01
 411,     4.3245,     15.000,    1.049823e-01
 412,     4.3144,     15.000,    1.575584e-01
 413,     4.3027,     15.000,    1.997418e-01
 414,     4.2845,     15.000,    9.787919e-02
 415,     4.2680,     15.000,    1.527142e-01
 416,     4.2475,     15.000,    1.398385e-01
 417,     4.2344,     15.000,    1.773788e-01
 418,     4.2127,     15.000,    2.117964e-01
 419,     4.2061,      4.661,    2.390773e-02
 420,     4.2028,      4.845,    1.558176e-02
 421,     4.1970,      3.882,    2.011028e-02
 422,     4.1910,      8.325,    3.966011e-02
 423,     4.1871,     11.823,    5.223020e-02
 424,     4.1790,     14.857,    3.663350e-02
 425,     4.1714,     15.000,    1.018141e-01
 426,     4.1615,     15.000,    1.056049e-01
 427,     4.1512,     15.000,    4.224373e-02
 428,     4.1452,     15.000,    1.119290e-01
 429,     4.1369,     15.000,    1.238090e-01
 430,     4.1268,     15.000,    5.565107e-02
 431,     4.1140,     15.000,    7.599664e-02
 432,     4.1029,     15.000,    1.018805e-01
 433,     4.0951,     15.000,    1.099558e-01
