index,   freq_ppm,   decay_hz, amplitude
   1,     8.9880,     15.000,    9.955317e-02
   2,     8.9749,     15.000,    1.092660e-01
   3,     8.9651,     15.000,    8.321646e-02
   4,     8.9533,     15.000,    1.057116e-01
   5,     8.9412,     15.000,    7.482219e-02
   6,     8.9261,     15.000,    1.075000e-01
   7,     8.9128,     15.000,    1.090399e-01
   8,     8.9027,     15.000,    7.354158e-02
   9,     8.8912,     15.000,    6.237742e-02
  10,     8.8839,     15.000,    1.067815e-01
  11,     8.8633,     15.000,    1.373526e-01
  12,     8.8407,     15.000,    1.146108e-01
  13,     8.8260,     15.000,    1.050297e-01
  14,     8.8134,     15.000,    1.118733e-01
  15,     8.7947,     15.000,    1.049708e-01
  16,     8.7820,     15.000,    1.126940e-01
  17,     8.7677,     15.000,    9.107501e-02
  18,     8.7588,     15.000,    8.756402e-02
  19,     8.7532,     14.006,    3.816764e-02
  20,     8.7461,     15.000,    7.703135e-02
  21,     8.7388,     14.477,    7.238605e-02
  22,     8.7293,     15.000,    6.223251e-02
  23,     8.7197,     15.000,    1.136733e-01
  24,     8.7060,     15.000,    8.504969e-02
  25,     8.6925,     15.000,    8.210273e-02
  26,     8.6818,      6.863,    2.488801e-02
  27,     8.6728,     14.598,    7.423312e-02
  28,     8.6624,     15.000,    3.397925e-02
  29,     8.6558,     15.000,    8.672187e-02
  30,     8.6377,     15.000,    8.259400e-02
  31,     8.6263,     15.000,    9.085247e-02
  32,     8.6072,     15.000,    1.522446e-01
  33,     8.5936,     15.000,    9.332187e-02
  34,     8.5832,     15.000,    8.380518e-02
  35,     8.5744,     12.685,    7.979883e-02
  36,     8.5626,     15.000,    2.566788e-01
  37,     8.5505,     15.000,    6.787302e-02
  38,     8.5445,     13.384,    9.193259e-02
  39,     8.5353,     13.288,    1.309466e-01
  40,     8.5293,     12.159,    9.338274e-02
  41,     8.5195,     14.160,    1.228281e-01
  42,     8.5102,     14.647,    1.357497e-01
  43,     8.4982,     14.423,    1.108993e-01
  44,     8.4468,      2.488,    2.958506e+00
  45,     8.4455,      0.744,    3.611186e+00
  46,     8.4440,      1.572,    4.112731e+00
  47,     8.4426,      5.227,    3.948621e+00
  48,     8.4389,     15.000,    1.656004e+00
  49,     8.4296,     15.000,    7.962269e-01
  50,     8.4178,     15.000,    6.890470e-01
  51,     8.4101,     15.000,    2.826439e-01
  52,     8.3970,     15.000,    1.969113e-01
  53,     8.3754,     15.000,    1.082726e-01
  54,     8.3564,     15.000,    1.122284e-01
  55,     8.3341,     15.000,    1.423883e-01
  56,     8.3207,      5.949,    6.472982e-02
  57,     8.3188,     12.048,    1.391277e-01
  58,     8.3087,     11.575,    4.094055e-02
  59,     8.2978,      6.260,    2.821080e-02
  60,     8.2953,      7.899,    5.360745e-02
  61,     8.2842,     15.000,    8.158782e-02
  62,     8.2712,     15.000,    1.266329e-01
  63,     8.2504,     15.000,    1.380935e-01
  64,     8.2355,     15.000,    1.150223e-01
  65,     8.1976,     15.000,    8.675416e-02
  66,     8.1851,     15.000,    1.329021e-01
  67,     8.1767,     15.000,    7.648902e-02
  68,     8.1697,     12.916,    5.149452e-02
  69,     8.1646,     14.135,    9.432325e-02
  70,     8.1561,     11.446,    7.188067e-02
  71,     8.1482,     11.001,    6.702998e-02
  72,     8.1366,     15.000,    1.009501e-01
  73,     8.1293,     14.918,    1.101031e-01
  74,     8.1241,      2.749,    1.349502e-02
  75,     8.1196,      4.349,    2.978428e-02
  76,     8.1141,     15.000,    1.267060e-01
  77,     8.1035,      4.050,    2.055399e-02
  78,     8.0986,     14.502,    5.946086e-02
  79,     8.0929,     15.000,    1.109617e-01
  80,     8.0864,      9.833,    2.681573e-02
  81,     8.0808,     13.498,    7.260240e-02
  82,     8.0684,     15.000,    1.065226e-01
  83,     8.0576,     15.000,    9.540414e-02
  84,     8.0472,     15.000,    8.852018e-02
  85,     8.0291,     15.000,    1.092116e-01
  86,     8.0155,     15.000,    8.763915e-02
  87,     8.0053,     15.000,    1.041097e-01
  88,     7.9806,     15.000,    1.085352e-01
  89,     7.9739,     10.060,    5.351451e-02
  90,     7.9646,     15.000,    8.143088e-02
  91,     7.9580,     15.000,    7.092165e-02
  92,     7.9502,     15.000,    7.330625e-02
  93,     7.9351,     15.000,    6.746406e-02
  94,     7.9193,     15.000,    9.081609e-02
  95,     7.8969,     15.000,    7.113674e-02
  96,     7.8694,      9.146,    5.479078e-01
  97,     7.8672,      9.603,    3.893781e-01
  98,     7.8585,     13.717,    1.179035e+00
  99,     7.8496,     15.000,    1.300846e-01
 100,     7.8365,     15.000,    9.445284e-02
 101,     7.8150,     15.000,    5.319453e-02
 102,     7.8043,     15.000,    7.380357e-02
 103,     7.7907,     12.813,    6.006175e-02
 104,     7.7825,     15.000,    7.237548e-02
 105,     7.7696,     10.609,    5.010692e-02
 106,     7.7577,      6.817,    2.572148e-02
 107,     7.7473,      9.083,    5.077079e-02
 108,     7.7357,     13.154,    4.190489e-02
 109,     7.7302,      6.341,    4.133929e-02
 110,     7.7154,     12.306,    6.278451e-02
 111,     7.7041,     13.153,    8.029810e-02
 112,     7.6958,      7.310,    2.680821e-02
 113,     7.6895,     11.002,    5.118432e-02
 114,     7.6797,     14.736,    8.455370e-02
 115,     7.6616,     15.000,    1.193319e-01
 116,     7.6429,     15.000,    1.115409e-01
 117,     7.6246,     15.000,    1.158597e-01
 118,     7.6019,     15.000,    1.017339e-01
 119,     7.5806,     15.000,    8.580405e-02
 120,     7.5699,     15.000,    1.179683e-01
 121,     7.5586,     15.000,    8.282530e-02
 122,     7.5422,     15.000,    8.358988e-02
 123,     7.5309,     15.000,    4.552937e-02
 124,     7.5197,     15.000,    7.631755e-02
 125,     7.5082,     15.000,    7.471465e-02
 126,     7.4939,     15.000,    7.764415e-02
 127,     7.4806,     15.000,    8.975920e-02
 128,     7.4704,     15.000,    9.596837e-02
 129,     7.4545,     15.000,    7.405059e-02
 130,     7.4465,     11.360,    5.973978e-02
 131,     7.4397,     10.637,    5.844032e-02
 132,     7.4322,     15.000,    6.159252e-02
 133,     7.4194,     15.000,    7.714467e-02
 134,     7.4010,     15.000,    9.800153e-02
 135,     7.3857,     15.000,    8.408587e-02
 136,     7.3709,     15.000,    8.693871e-02
 137,     7.3540,      8.393,    5.266163e-02
 138,     7.3477,      7.275,    3.550112e-02
 139,     7.3397,     10.067,    2.908569e-02
 140,     7.3336,     11.984,    3.944350e-02
 141,     7.3221,     11.505,    8.059270e-02
 142,     7.3149,      7.112,    4.974976e-02
 143,     7.3092,     11.053,    5.803997e-02
 144,     7.3048,      9.974,    5.756048e-02
 145,     7.3005,      5.594,    2.010835e-02
 146,     7.2930,      6.204,    4.009446e-02
 147,     7.2856,     15.000,    1.314529e-01
 148,     7.2661,     15.000,    1.911859e-01
 149,     7.2494,     15.000,    1.555764e-01
 150,     7.2320,     15.000,    1.474853e-01
 151,     7.2149,     15.000,    1.686657e-01
 152,     7.2057,     15.000,    1.185130e-01
 153,     7.1931,     15.000,    1.321898e-01
 154,     7.1831,      9.529,    4.358289e-02
 155,     7.1792,      7.033,    3.249886e-02
 156,     7.1686,     15.000,    1.150569e-01
 157,     7.1600,     15.000,    1.041682e-01
 158,     7.1517,     15.000,    1.716930e-01
 159,     7.1388,     15.000,    1.239117e-01
 160,     7.1254,     15.000,    1.609953e-01
 161,     7.1028,     15.000,    1.740597e-01
 162,     7.0908,     15.000,    1.161151e-01
 163,     7.0784,     15.000,    2.842114e-01
 164,     7.0648,     15.000,    1.457632e-01
 165,     7.0538,      3.678,    1.707710e-02
 166,     7.0508,      8.394,    1.997737e-02
 167,     7.0451,      6.130,    3.512735e-02
 168,     7.0420,      9.988,    3.293829e-02
 169,     7.0367,      8.504,    3.243687e-02
 170,     7.0283,      7.174,    3.614302e-02
 171,     7.0216,     11.388,    4.754604e-02
 172,     7.0135,     12.469,    1.020167e-01
 173,     6.9990,     15.000,    8.358021e-02
 174,     6.9863,     15.000,    8.360060e-02
 175,     6.9763,     15.000,    7.042155e-02
 176,     6.9672,     15.000,    4.870423e-02
 177,     6.9597,     15.000,    6.385079e-02
 178,     6.9465,     15.000,    9.568448e-02
 179,     6.9348,     15.000,    8.333673e-02
 180,     6.9241,     10.477,    6.856179e-02
 181,     6.9188,      6.435,    3.575425e-02
 182,     6.9082,     15.000,    6.706529e-02
 183,     6.8984,     15.000,    4.748572e-02
 184,     6.8872,     15.000,    1.290505e-01
 185,     6.8781,     15.000,    8.689482e-02
 186,     6.8694,      9.199,    5.792489e-02
 187,     6.8604,     11.876,    6.558444e-02
 188,     6.8525,     15.000,    6.764524e-02
 189,     6.8344,     15.000,    1.028511e-01
 190,     6.8243,     15.000,    1.106770e-01
 191,     6.8124,     15.000,    8.935037e-02
 192,     6.8005,      5.733,    4.164749e-02
 193,     6.7940,      6.852,    3.680040e-02
 194,     6.7906,      8.034,    3.322735e-02
 195,     6.7825,      8.672,    4.646828e-02
 196,     6.7731,     15.000,    5.890916e-02
 197,     6.7588,     15.000,    1.133291e-01
 198,     6.7396,     15.000,    5.989038e-02
 199,     6.7278,     15.000,    6.767489e-02
 200,     6.7174,     15.000,    8.383968e-02
 201,     6.7051,     15.000,    5.616660e-02
 202,     6.6953,     15.000,    7.958604e-02
 203,     6.6791,     15.000,    1.011223e-01
 204,     6.6707,      8.608,    3.640803e-02
 205,     6.6620,     15.000,    7.525072e-02
 206,     6.6537,     12.916,    4.796230e-02
 207,     6.6470,     10.695,    7.716081e-02
 208,     6.6324,     15.000,    9.917390e-02
 209,     6.6237,     15.000,    7.867613e-02
 210,     6.6166,     13.670,    7.327954e-02
 211,     6.6016,     15.000,    1.199881e-01
 212,     6.5887,     15.000,    1.263466e-01
 213,     6.5778,     15.000,    1.394138e-01
 214,     6.5585,     15.000,    1.132128e-01
 215,     6.5426,     15.000,    1.102413e-01
 216,     6.5319,     15.000,    1.289105e-01
 217,     6.5248,     12.276,    7.589029e-02
 218,     6.5197,     15.000,    6.814895e-02
 219,     6.5087,     15.000,    8.889375e-02
 220,     6.4988,     15.000,    9.902699e-02
 221,     6.4881,     15.000,    7.993212e-02
 222,     6.4776,     15.000,    9.904340e-02
 223,     6.4685,     15.000,    7.179155e-02
 224,     6.4593,      5.380,    2.940542e-02
 225,     6.4531,     14.634,    6.039099e-02
 226,     6.4446,     15.000,    3.954154e-02
 227,     6.4361,      7.818,    6.722743e-02
 228,     6.4247,     10.148,    5.993114e-02
 229,     6.4186,     10.597,    3.423791e-02
 230,     6.4092,     12.857,    3.000432e-02
 231,     6.4039,      9.174,    3.768699e-02
 232,     6.3937,     15.000,    6.490798e-02
 233,     6.3826,     15.000,    8.000223e-02
 234,     6.3721,     15.000,    9.171799e-02
 235,     6.3632,     15.000,    1.624554e-01
 236,     6.3554,     15.000,    4.931884e-02
 237,     6.3416,     15.000,    1.079220e-01
 238,     6.3196,     15.000,    1.442031e-01
 239,     6.3020,     15.000,    1.206029e-01
 240,     6.2826,     15.000,    1.250417e-01
 241,     6.2587,     15.000,    1.262065e-01
 242,     6.2328,     15.000,    1.222139e-01
 243,     6.2030,     15.000,    1.266296e-01
 244,     6.1875,     15.000,    1.406220e-01
 245,     6.1568,     14.651,    1.380567e-01
 246,     6.1450,     14.409,    1.176762e-01
 247,     6.1336,     14.637,    1.186336e-01
 248,     6.1196,     14.731,    1.520083e-01
 249,     6.1044,     14.742,    1.197708e-01
 250,     6.0843,     14.814,    1.569930e-01
 251,     6.0706,     14.762,    1.506812e-01
 252,     6.0606,      9.075,    6.343889e-02
 253,     6.0546,      0.579,    9.146839e-03
 254,     6.0483,      9.543,    6.774909e-02
 255,     6.0431,      8.789,    6.048349e-02
 256,     6.0334,     15.000,    1.494396e-01
 257,     6.0254,     15.000,    8.902995e-02
 258,     6.0136,     15.000,    1.014875e-01
 259,     6.0047,     15.000,    1.683158e-01
 260,     5.9928,     15.000,    1.270415e-01
 261,     5.9783,     15.000,    1.165549e-01
 262,     5.9684,     15.000,    1.408675e-01
 263,     5.9615,     15.000,    9.805816e-02
 264,     5.9515,     15.000,    7.636005e-02
 265,     5.9369,     15.000,    1.157336e-01
 266,     5.9252,     15.000,    8.346592e-02
 267,     5.9095,     11.757,    6.658307e-01
 268,     5.9040,     12.142,    7.213917e-01
 269,     5.8950,     13.694,    9.050333e-01
 270,     5.8850,     13.674,    9.480644e-01
 271,     5.8760,     15.000,    1.033415e-01
 272,     5.8648,     12.018,    1.051981e-01
 273,     5.8591,     11.820,    6.650538e-02
 274,     5.8441,     15.000,    1.095249e-01
 275,     5.8328,     13.265,    8.867441e-02
 276,     5.8226,     15.000,    8.350822e-02
 277,     5.8097,     15.000,    9.015696e-02
 278,     5.7989,     15.000,    1.476785e-01
 279,     5.7799,     15.000,    1.383409e-01
 280,     5.7624,     15.000,    1.171710e-01
 281,     5.7533,     15.000,    8.931113e-02
 282,     5.7310,     15.000,    9.756613e-02
 283,     5.7225,     15.000,    9.239854e-02
 284,     5.7014,     15.000,    9.954176e-02
 285,     5.6943,     15.000,    5.513417e-02
 286,     5.6827,     15.000,    9.955394e-02
 287,     5.6686,     15.000,    9.446975e-02
 288,     5.6535,     15.000,    9.166700e-02
 289,     5.6391,     15.000,    9.792418e-02
 290,     5.6296,      5.053,    2.085761e-02
 291,     5.6216,     13.739,    5.457214e-02
 292,     5.6154,      8.504,    5.662493e-02
 293,     5.6090,     15.000,    9.070131e-02
 294,     5.6006,     15.000,    6.797034e-02
 295,     5.5878,     15.000,    1.110775e-01
 296,     5.5710,     15.000,    1.126562e-01
 297,     5.5551,     15.000,    1.247349e-01
 298,     5.5460,     15.000,    9.054931e-02
 299,     5.5357,     15.000,    9.381633e-02
 300,     5.5274,     15.000,    9.047738e-02
 301,     5.5119,     15.000,    9.431247e-02
 302,     5.5043,     15.000,    9.266831e-02
 303,     5.4948,     10.736,    8.379551e-02
 304,     5.4824,     10.604,    2.612801e-02
 305,     5.4775,     10.298,    6.600168e-02
 306,     5.4678,     15.000,    1.095446e-01
 307,     5.4598,      6.478,    3.528070e-02
 308,     5.4536,      7.882,    3.208807e-02
 309,     5.4495,     13.832,    6.150642e-02
 310,     5.4413,     14.181,    8.165433e-02
 311,     5.4289,     15.000,    7.316239e-02
 312,     5.4177,      5.052,    3.756597e-02
 313,     5.4068,     15.000,    8.720062e-02
 314,     5.3954,     15.000,    8.089141e-02
 315,     5.3871,     14.480,    8.174969e-02
 316,     5.3752,     14.411,    8.122580e-02
 317,     5.3667,     15.000,    1.258522e-01
 318,     5.3537,      4.393,    2.783617e-02
 319,     5.3494,     12.254,    3.901408e-02
 320,     5.3418,      8.395,    4.764621e-02
 321,     5.3365,      9.473,    5.411232e-02
 322,     5.3253,     15.000,    8.279358e-02
 323,     5.3065,     15.000,    1.136118e-01
 324,     5.2961,     15.000,    1.393034e-01
 325,     5.2798,     15.000,    1.089184e-01
 326,     5.2610,     15.000,    1.649168e-01
 327,     5.2465,     15.000,    4.948018e-02
 328,     5.2407,     13.652,    9.620009e-02
 329,     5.2316,      4.873,    2.868002e-02
 330,     5.2262,     14.995,    6.567454e-02
 331,     5.2095,     15.000,    1.102923e-01
 332,     5.1969,      4.356,    2.541674e-02
 333,     5.1916,     15.000,    5.938201e-02
 334,     5.1830,     15.000,    1.042003e-01
 335,     5.1691,     15.000,    7.948983e-02
 336,     5.1593,     15.000,    8.459967e-02
 337,     5.1480,     15.000,    1.242385e-01
 338,     5.1276,     15.000,    1.688153e-01
 339,     5.1027,     15.000,    1.046445e-01
 340,     5.0880,     15.000,    9.951087e-02
 341,     5.0743,     15.000,    1.027590e-01
 342,     5.0619,     15.000,    1.162719e-01
 343,     5.0438,     15.000,    1.475917e-01
 344,     5.0284,     15.000,    1.028728e-01
 345,     5.0170,     15.000,    7.587449e-02
 346,     4.9967,     15.000,    1.181230e-01
 347,     4.9713,     15.000,    1.302564e-01
 348,     4.9479,     15.000,    1.120307e-01
 349,     4.9351,      2.587,    1.145243e-02
 350,     4.9276,     15.000,    5.540855e-02
 351,     4.9221,     14.751,    1.086685e-01
 352,     4.9154,     12.492,    1.021632e-01
 353,     4.9095,     13.337,    7.970638e-02
 354,     4.9018,     14.046,    1.127218e-01
 355,     4.8905,     14.995,    9.147605e-02
 356,     4.8785,     14.996,    9.048399e-02
 357,     4.8718,     14.478,    5.657983e-02
 358,     4.8593,     15.000,    1.022888e-01
 359,     4.8504,     14.998,    1.112799e-01
 360,     4.8381,     15.000,    1.531350e-01
 361,     4.8312,     15.000,    1.199110e-01
 362,     4.8232,     15.000,    1.266702e-01
 363,     4.8146,     15.000,    1.673325e-01
 364,     4.8059,     15.000,    1.640315e-01
 365,     4.7987,     15.000,    7.631442e-01
 366,     4.7920,     15.000,    8.750775e-01
 367,     4.7858,     15.000,    1.195630e+00
 368,     4.7749,     12.408,    7.906535e-01
 369,     4.7678,     15.000,    8.609163e-01
 370,     4.7582,     15.000,    1.048678e+00
 371,     4.7493,     15.000,    1.044299e+00
 372,     4.7394,     15.000,    1.143058e+00
 373,     4.7289,     15.000,    1.129302e+00
 374,     4.7193,     15.000,    1.085649e+00
 375,     4.7048,     15.000,    1.005526e-01
 376,     4.6859,     15.000,    5.940002e-02
 377,     4.6749,     15.000,    9.344701e-02
 378,     4.6597,     15.000,    8.317257e-02
 379,     4.6500,     15.000,    7.767288e-02
 380,     4.6348,     15.000,    7.739677e-02
 381,     4.6254,     15.000,    8.893117e-02
 382,     4.5990,     15.000,    8.591890e-02
 383,     4.5816,     15.000,    9.828828e-02
 384,     4.5635,     15.000,    9.344695e-02
 385,     4.5492,     15.000,    9.020156e-02
 386,     4.5376,     15.000,    1.525369e-01
 387,     4.5258,      7.482,    4.366099e-02
 388,     4.5184,     15.000,    7.561627e-02
 389,     4.5075,     15.000,    7.231162e-02
 390,     4.4952,     15.000,    8.717231e-02
 391,     4.4712,     15.000,    1.055743e-01
 392,     4.4624,     15.000,    1.014701e-01
 393,     4.4564,     15.000,    7.225054e-02
 394,     4.4429,     13.970,    8.235713e-02
 395,     4.4339,     11.674,    4.860917e-02
 396,     4.4250,     14.787,    6.487340e-02
 397,     4.4177,     11.365,    5.945072e-02
 398,     4.4078,     14.899,    8.988386e-02
 399,     4.3981,     13.271,    6.789875e-02
 400,     4.3934,      6.401,    4.339667e-02
 401,     4.3883,      9.721,    6.532641e-02
 402,     4.3771,     11.353,    8.626380e-02
 403,     4.3676,     15.000,    1.165845e-01
 404,     4.3515,     13.034,    4.074605e-01
 405,     4.3451,     15.000,    1.199778e+00
 406,     4.3388,     15.000,    5.827670e-01
 407,     4.3223,     15.000,    1.252770e-01
 408,     4.3154,     15.000,    8.468893e-02
 409,     4.3072,      3.968,    1.935164e-02
 410,     4.3019,     14.818,    4.830686e-02
 411,     4.2896,      6.865,    3.484085e-02
 412,     4.2838,     11.244,    4.090903e-02
 413,     4.2719,     15.000,    1.166995e-01
 414,     4.2530,     15.000,    5.866585e-02
 415,     4.2381,      8.090,    6.031364e-02
 416,     4.2277,      9.768,    2.334679e-01
 417,     4.2254,     10.690,    3.184888e-01
 418,     4.2209,     10.643,    5.692375e-01
 419,     4.2186,     10.393,    5.015177e-01
 420,     4.2128,     14.419,    7.005335e-01
 421,     4.2017,     12.619,    9.190867e-02
 422,     4.1947,     15.000,    1.457164e-01
 423,     4.1826,     13.682,    1.196795e-01
 424,     4.1690,     14.570,    1.206223e-01
 425,     4.1644,     15.000,    6.563054e-02
 426,     4.1589,     14.627,    1.222563e-01
 427,     4.1544,      9.918,    8.900429e-02
 428,     4.1299,      9.639,    2.203612e-01
 429,     4.1253,     15.000,    9.507371e-01
 430,     4.1202,     15.000,    9.902879e-01
 431,     4.1148,     15.000,    4.110186e-01
 432,     4.0967,     15.000,    3.637524e-01
 433,     4.0918,     15.000,    5.201443e-01
