index,   freq_ppm,   decay_hz, amplitude
   1,     8.9570,     15.000,    1.147024e-01
   2,     8.9435,     15.000,    1.129963e-01
   3,     8.9213,     15.000,    1.300331e-01
   4,     8.9005,     15.000,    1.503843e-01
   5,     8.8488,     15.000,    1.319538e-01
   6,     8.8282,     15.000,    1.229190e-01
   7,     8.7861,     15.000,    1.277555e-01
   8,     8.7565,     15.000,    1.578560e-01
   9,     8.7467,     15.000,    9.504314e-02
  10,     8.7340,     15.000,    8.975156e-02
  11,     8.7240,     15.000,    1.112374e-01
  12,     8.7019,     15.000,    1.071822e-01
  13,     8.6869,     15.000,    1.144447e-01
  14,     8.6751,     15.000,    1.274063e-01
  15,     8.6671,     15.000,    1.045117e-01
  16,     8.6526,     15.000,    1.134424e-01
  17,     8.6421,     15.000,    1.136135e-01
  18,     8.6293,     15.000,    7.883184e-02
  19,     8.6162,     15.000,    9.556342e-02
  20,     8.6049,     14.820,    7.591539e-02
  21,     8.5939,     15.000,    7.886659e-02
  22,     8.5794,     15.000,    1.307193e-01
  23,     8.5643,      9.696,    1.768485e-01
  24,     8.5511,     15.000,    8.944786e-02
  25,     8.5319,     15.000,    1.175993e-01
  26,     8.5261,     15.000,    1.327284e-01
  27,     8.5177,     15.000,    1.491817e-01
  28,     8.5087,     15.000,    1.290648e-01
  29,     8.4998,     15.000,    1.276787e-01
  30,     8.4893,     15.000,    9.742390e-02
  31,     8.4468,      2.732,    2.923825e+00
  32,     8.4456,      2.057,    5.015593e+00
  33,     8.4444,      5.169,    4.627633e+00
  34,     8.4399,     15.000,    1.174697e+00
  35,     8.4246,     15.000,    6.501324e-01
  36,     8.4043,     15.000,    5.621257e-01
  37,     8.3779,     15.000,    5.222930e-01
  38,     8.3648,     12.561,    9.191302e-02
  39,     8.3545,     15.000,    6.327166e-02
  40,     8.3358,     10.793,    6.004095e-01
  41,     8.3273,     13.198,    6.452283e-02
  42,     8.3209,      7.912,    1.340386e-01
  43,     8.3096,     15.000,    9.540965e-02
  44,     8.3034,     14.901,    7.699893e-02
  45,     8.2958,      4.998,    3.177847e-02
  46,     8.2833,     15.000,    8.435431e-02
  47,     8.2706,     15.000,    7.610258e-02
  48,     8.2630,      3.327,    2.285659e-02
  49,     8.2543,      8.613,    3.483820e-01
  50,     8.2484,      2.391,    1.908416e-02
  51,     8.2416,     15.000,    1.005843e-01
  52,     8.2359,     15.000,    7.407131e-02
  53,     8.2293,     14.686,    7.892092e-02
  54,     8.2231,     10.661,    7.467046e-02
  55,     8.2110,     15.000,    9.817337e-02
  56,     8.2045,      5.373,    2.535642e-02
  57,     8.1972,     15.000,    1.531564e-01
  58,     8.1899,      7.975,    5.278817e-02
  59,     8.1850,     12.413,    8.498719e-02
  60,     8.1797,      5.924,    3.539459e-02
  61,     8.1711,     11.664,    7.249134e-02
  62,     8.1630,     11.023,    8.871985e-02
  63,     8.1514,     15.000,    7.919952e-02
  64,     8.1426,     15.000,    9.488881e-02
  65,     8.1321,      6.774,    4.251081e-02
  66,     8.1242,     14.852,    9.316316e-02
  67,     8.1135,     15.000,    1.136467e-01
  68,     8.1014,      5.778,    2.144655e-02
  69,     8.0948,     15.000,    1.361363e-01
  70,     8.0863,     15.000,    9.662619e-02
  71,     8.0753,      4.787,    2.433524e-02
  72,     8.0661,     11.506,    6.178337e-02
  73,     8.0598,     12.163,    2.706592e-02
  74,     8.0511,     12.393,    6.223511e-02
  75,     8.0421,     13.962,    1.011158e-01
  76,     8.0262,     15.000,    7.463296e-02
  77,     8.0136,     15.000,    9.657112e-02
  78,     7.9990,     15.000,    1.632893e-01
  79,     7.9871,     12.916,    5.669475e-02
  80,     7.9805,     15.000,    8.824643e-02
  81,     7.9673,     15.000,    8.816624e-02
  82,     7.9608,     12.298,    7.837634e-02
  83,     7.9504,      6.194,    3.528469e-02
  84,     7.9469,      3.374,    1.161402e-02
  85,     7.9404,     11.407,    8.811041e-02
  86,     7.9344,      6.087,    2.055652e-02
  87,     7.9276,      8.613,    5.504253e-02
  88,     7.9201,     12.263,    6.590154e-02
  89,     7.9170,      9.609,    4.396128e-02
  90,     7.9102,      4.763,    2.554177e-02
  91,     7.9034,      3.544,    1.953195e-02
  92,     7.8968,     10.063,    6.857304e-02
  93,     7.8846,      7.093,    2.753586e-02
  94,     7.8801,      8.884,    4.027618e-02
  95,     7.8670,     14.904,    1.221862e-01
  96,     7.8565,     11.889,    6.917851e-02
  97,     7.8481,     15.000,    8.677800e-02
  98,     7.8344,     10.513,    7.098927e-02
  99,     7.8285,      8.687,    2.494546e-02
 100,     7.8210,     15.000,    8.903272e-02
 101,     7.8139,     15.000,    7.669176e-02
 102,     7.8027,     15.000,    9.301598e-02
 103,     7.7863,     15.000,    1.046038e-01
 104,     7.7574,     15.000,    1.139346e-01
 105,     7.7465,     15.000,    1.069820e-01
 106,     7.7371,     15.000,    8.343655e-02
 107,     7.7288,     15.000,    6.179018e-02
 108,     7.7165,     15.000,    7.710908e-02
 109,     7.6991,     15.000,    9.360425e-02
 110,     7.6839,     15.000,    6.666233e-02
 111,     7.6769,      6.024,    3.721850e-02
 112,     7.6696,     10.517,    5.817198e-02
 113,     7.6636,      7.190,    4.893903e-02
 114,     7.6508,     15.000,    1.172441e-01
 115,     7.6273,     14.979,    6.846739e-02
 116,     7.6171,     15.000,    9.748384e-02
 117,     7.6066,     15.000,    7.355873e-02
 118,     7.5899,     15.000,    7.518446e-02
 119,     7.5754,     15.000,    1.143371e-01
 120,     7.5677,      6.687,    2.508348e-02
 121,     7.5614,      2.249,    1.060526e-02
 122,     7.5560,     15.000,    6.587522e-02
 123,     7.5471,     14.384,    8.043603e-02
 124,     7.5419,     15.000,    9.327422e-02
 125,     7.5293,     14.867,    1.259949e-01
 126,     7.5178,     14.173,    1.149635e-01
 127,     7.5093,     15.000,    1.260244e-01
 128,     7.5004,     15.000,    6.378218e-02
 129,     7.4943,      4.714,    1.549353e-02
 130,     7.4862,      8.362,    4.181005e-02
 131,     7.4803,      8.588,    8.109911e-02
 132,     7.4734,     14.686,    5.638761e-02
 133,     7.4695,     14.042,    4.717322e-02
 134,     7.4618,     13.162,    8.505740e-02
 135,     7.4532,     12.260,    1.914927e-02
 136,     7.4481,     12.709,    5.323594e-02
 137,     7.4425,     11.900,    8.787280e-02
 138,     7.4375,     13.415,    4.051473e-02
 139,     7.4301,     15.000,    8.777305e-02
 140,     7.4195,     11.291,    6.346580e-02
 141,     7.4073,     15.000,    7.473492e-02
 142,     7.4006,     13.838,    9.072006e-02
 143,     7.3908,     15.000,    6.121075e-02
 144,     7.3844,     10.063,    4.299819e-02
 145,     7.3766,     12.745,    7.834389e-02
 146,     7.3676,      7.347,    3.912634e-02
 147,     7.3508,     15.000,    7.427453e-02
 148,     7.3341,     15.000,    9.447967e-02
 149,     7.3162,     15.000,    1.152698e-01
 150,     7.2925,     15.000,    8.988983e-02
 151,     7.2844,     15.000,    9.892516e-02
 152,     7.2730,     15.000,    7.083043e-02
 153,     7.2559,     15.000,    8.686989e-02
 154,     7.2466,     15.000,    1.134761e-01
 155,     7.2295,     15.000,    8.240750e-02
 156,     7.2179,     15.000,    8.862079e-02
 157,     7.2089,     10.510,    5.766789e-02
 158,     7.2020,     10.527,    7.524434e-02
 159,     7.1886,     15.000,    9.047910e-02
 160,     7.1774,     15.000,    6.479887e-02
 161,     7.1649,     14.671,    1.265007e-01
 162,     7.1508,     14.438,    1.067611e-01
 163,     7.1362,     13.199,    6.935844e-02
 164,     7.1302,     10.203,    4.924302e-02
 165,     7.1233,     10.943,    5.507532e-02
 166,     7.1109,     13.811,    1.122032e-01
 167,     7.1005,     14.848,    5.886396e-02
 168,     7.0893,     15.000,    9.384377e-02
 169,     7.0793,      9.207,    1.744794e-01
 170,     7.0691,     15.000,    1.285413e-01
 171,     7.0551,     15.000,    1.546569e-01
 172,     7.0403,     15.000,    1.371641e-01
 173,     7.0265,     15.000,    1.306255e-01
 174,     7.0125,     15.000,    1.411037e-01
 175,     6.9967,     15.000,    1.316469e-01
 176,     6.9790,     15.000,    1.458893e-01
 177,     6.9699,     15.000,    6.280867e-02
 178,     6.9605,     15.000,    1.050066e-01
 179,     6.9476,     14.690,    9.714767e-02
 180,     6.9362,     15.000,    1.151801e-01
 181,     6.9273,     15.000,    9.192297e-02
 182,     6.9149,     11.636,    7.514527e-02
 183,     6.9049,     12.729,    4.115390e-02
 184,     6.8956,     15.000,    9.014777e-02
 185,     6.8795,     15.000,    1.106097e-01
 186,     6.8721,     10.804,    6.616285e-02
 187,     6.8643,      9.683,    6.191837e-02
 188,     6.8545,     13.222,    7.503246e-02
 189,     6.8444,     13.727,    8.157588e-02
 190,     6.8180,     11.834,    6.901621e-02
 191,     6.8067,     12.696,    8.456130e-02
 192,     6.7982,     15.000,    1.164443e-01
 193,     6.7903,     12.603,    5.721144e-02
 194,     6.7787,     15.000,    1.038228e-01
 195,     6.7695,     15.000,    8.091835e-02
 196,     6.7571,     15.000,    1.160138e-01
 197,     6.7492,      7.265,    4.410116e-02
 198,     6.7421,     10.920,    5.388523e-02
 199,     6.7338,      5.081,    3.413966e-02
 200,     6.7294,     15.000,    1.206481e-01
 201,     6.7219,     15.000,    1.278822e-01
 202,     6.7086,     15.000,    1.004601e-01
 203,     6.6992,     15.000,    7.868949e-02
 204,     6.6929,     15.000,    1.010991e-01
 205,     6.6823,     15.000,    1.528806e-01
 206,     6.6696,     14.502,    6.305828e-02
 207,     6.6556,     15.000,    7.403708e-02
 208,     6.6482,     14.172,    6.179567e-02
 209,     6.6338,     12.034,    3.736142e-02
 210,     6.6252,      8.685,    5.174897e-02
 211,     6.6183,     15.000,    7.224313e-02
 212,     6.6111,     10.954,    5.110496e-02
 213,     6.6064,     10.243,    6.757181e-02
 214,     6.5943,     15.000,    1.448137e-01
 215,     6.5861,     14.749,    7.140426e-02
 216,     6.5693,     15.000,    9.875076e-02
 217,     6.5595,     15.000,    9.679212e-02
 218,     6.5509,     15.000,    8.858591e-02
 219,     6.5412,     15.000,    6.669462e-02
 220,     6.5218,     15.000,    7.590747e-02
 221,     6.5151,     15.000,    8.816403e-02
 222,     6.4989,     15.000,    1.180730e-01
 223,     6.4844,     15.000,    9.874538e-02
 224,     6.4732,     15.000,    1.317761e-01
 225,     6.4578,     15.000,    1.587207e-01
 226,     6.4437,     15.000,    1.249965e-01
 227,     6.4303,     15.000,    1.574621e-01
 228,     6.4108,     14.939,    1.031515e-01
 229,     6.4011,     11.512,    5.275930e-02
 230,     6.3958,     10.576,    3.913631e-02
 231,     6.3888,     11.719,    7.032868e-02
 232,     6.3824,     15.000,    5.743724e-02
 233,     6.3694,     11.357,    5.687427e-02
 234,     6.3631,      4.552,    6.281156e-02
 235,     6.3580,      3.590,    1.945585e-02
 236,     6.3541,      5.950,    3.137984e-02
 237,     6.3398,     14.852,    7.478241e-02
 238,     6.3330,      9.223,    3.942956e-02
 239,     6.3253,     15.000,    8.688899e-02
 240,     6.3178,     15.000,    8.801336e-02
 241,     6.3066,     12.529,    4.612034e-02
 242,     6.2951,      8.893,    3.447533e-02
 243,     6.2900,     15.000,    1.181867e-01
 244,     6.2828,     15.000,    1.193437e-01
 245,     6.2692,     15.000,    1.138695e-01
 246,     6.2537,     15.000,    1.217259e-01
 247,     6.2439,     15.000,    7.699669e-02
 248,     6.2276,     15.000,    1.721479e-01
 249,     6.2152,      7.567,    5.149833e-02
 250,     6.2095,     15.000,    1.092638e-01
 251,     6.1976,     13.769,    3.907907e-02
 252,     6.1899,     15.000,    1.250546e-01
 253,     6.1790,     15.000,    1.361590e-01
 254,     6.1536,     15.000,    1.227372e-01
 255,     6.1378,     15.000,    1.035011e-01
 256,     6.1200,     15.000,    9.388650e-02
 257,     6.1029,     15.000,    1.531162e-01
 258,     6.0744,     10.256,    3.167996e-01
 259,     6.0665,     15.000,    4.628265e-01
 260,     6.0340,     15.000,    1.440587e-01
 261,     6.0205,     15.000,    1.166669e-01
 262,     6.0106,     15.000,    1.428359e-01
 263,     5.9994,     15.000,    1.111701e-01
 264,     5.9863,     15.000,    1.058267e-01
 265,     5.9730,     15.000,    1.464906e-01
 266,     5.9650,     15.000,    1.569974e-01
 267,     5.9589,     11.194,    6.044394e-02
 268,     5.9493,     15.000,    1.058138e-01
 269,     5.9351,     15.000,    1.616480e-01
 270,     5.9254,      9.628,    6.654726e-02
 271,     5.9181,     12.450,    7.957610e-02
 272,     5.9088,     14.854,    1.269631e-01
 273,     5.9009,     15.000,    7.638691e-02
 274,     5.8891,     15.000,    1.265742e-01
 275,     5.8784,      7.658,    5.479640e-02
 276,     5.8704,     15.000,    1.810489e-01
 277,     5.8485,     15.000,    1.219813e-01
 278,     5.8337,     15.000,    1.598507e-01
 279,     5.8199,     15.000,    1.224858e-01
 280,     5.8099,     15.000,    1.057379e-01
 281,     5.7981,     15.000,    1.355864e-01
 282,     5.7871,     15.000,    1.380757e-01
 283,     5.7722,     10.946,    9.052431e-02
 284,     5.7648,     13.002,    9.653655e-02
 285,     5.7567,     11.341,    6.475779e-02
 286,     5.7506,      6.415,    2.450661e-02
 287,     5.7400,      9.169,    7.707794e-02
 288,     5.7318,      4.804,    3.323799e-02
 289,     5.7251,     15.000,    7.495822e-02
 290,     5.7137,     15.000,    9.545307e-02
 291,     5.6973,     15.000,    4.005679e-02
 292,     5.6843,     15.000,    1.187802e-01
 293,     5.6705,      9.500,    5.784696e-02
 294,     5.6655,      1.200,    8.401689e-03
 295,     5.6570,     15.000,    1.007862e-01
 296,     5.6462,      3.697,    1.788979e-02
 297,     5.6366,     12.656,    7.501478e-02
 298,     5.6274,     15.000,    1.361771e-01
 299,     5.6177,     11.041,    7.544465e-02
 300,     5.6079,     15.000,    1.201926e-01
 301,     5.5944,     15.000,    7.822052e-02
 302,     5.5845,     15.000,    1.031860e-01
 303,     5.5689,     15.000,    8.272004e-02
 304,     5.5593,     15.000,    1.189231e-01
 305,     5.5494,     15.000,    1.612312e-01
 306,     5.5185,     15.000,    1.487066e-01
 307,     5.4951,     15.000,    1.728139e-01
 308,     5.4740,     15.000,    1.191260e-01
 309,     5.4576,     15.000,    1.338515e-01
 310,     5.4382,      5.141,    2.477195e-02
 311,     5.4339,     15.000,    9.108775e-02
 312,     5.4267,     12.348,    5.037348e-02
 313,     5.4174,      3.886,    1.661706e-02
 314,     5.4119,     14.434,    1.144755e-01
 315,     5.4020,     15.000,    1.089342e-01
 316,     5.3875,     15.000,    9.388457e-02
 317,     5.3760,     14.973,    8.943966e-02
 318,     5.3652,     15.000,    1.094942e-01
 319,     5.3509,     14.891,    5.806649e-02
 320,     5.3449,     12.298,    8.062716e-02
 321,     5.3397,     11.248,    1.000092e-01
 322,     5.3323,     15.000,    1.235979e-01
 323,     5.3233,     15.000,    1.744104e-01
 324,     5.3165,     15.000,    7.046947e-02
 325,     5.3034,     15.000,    1.433446e-01
 326,     5.2912,     15.000,    1.703286e-01
 327,     5.2808,     15.000,    1.647397e-01
 328,     5.2657,     15.000,    1.556795e-01
 329,     5.2518,     15.000,    1.444384e-01
 330,     5.2191,     15.000,    1.499191e-01
 331,     5.2112,      9.473,    5.503164e-02
 332,     5.2057,     11.863,    7.498572e-02
 333,     5.1981,     13.015,    5.317670e-02
 334,     5.1909,     14.278,    7.919445e-02
 335,     5.1832,     11.313,    6.339201e-02
 336,     5.1745,     15.000,    3.797534e-02
 337,     5.1655,     15.000,    6.845499e-02
 338,     5.1557,      5.203,    2.225696e-02
 339,     5.1406,     15.000,    8.111627e-02
 340,     5.1337,     15.000,    7.626769e-02
 341,     5.1218,     15.000,    1.393806e-01
 342,     5.1108,     15.000,    1.301001e-01
 343,     5.0979,     15.000,    1.199290e-01
 344,     5.0881,     15.000,    1.153329e-01
 345,     5.0766,     15.000,    1.344813e-01
 346,     5.0674,     15.000,    1.254323e-01
 347,     5.0521,     10.858,    5.708756e-02
 348,     5.0400,     15.000,    9.600949e-02
 349,     5.0349,     13.521,    6.755525e-02
 350,     5.0287,     15.000,    8.781943e-02
 351,     5.0187,     15.000,    1.167906e-01
 352,     5.0043,     15.000,    1.002816e-01
 353,     4.9896,     15.000,    9.545574e-02
 354,     4.9774,     15.000,    1.046995e-01
 355,     4.9645,     15.000,    1.089744e-01
 356,     4.9548,     15.000,    1.113742e-01
 357,     4.9362,     15.000,    1.036221e-01
 358,     4.9229,     15.000,    8.485175e-02
 359,     4.9089,     15.000,    8.590164e-02
 360,     4.8989,     15.000,    1.020141e-01
 361,     4.8864,     15.000,    9.625239e-02
 362,     4.8691,     15.000,    1.183264e-01
 363,     4.8568,      5.426,    3.379967e-02
 364,     4.8518,     15.000,    6.548402e-02
 365,     4.8385,     15.000,    1.041929e-01
 366,     4.8262,     15.000,    6.969191e-02
 367,     4.8181,     15.000,    1.096195e-01
 368,     4.8073,     15.000,    2.195761e+00
 369,     4.7999,     15.000,    2.138594e+00
 370,     4.7926,     15.000,    2.196025e+00
 371,     4.7849,     15.000,    2.353927e+00
 372,     4.7730,     15.000,    2.069131e+00
 373,     4.7601,     15.000,    2.747876e+00
 374,     4.7499,     15.000,    2.806602e+00
 375,     4.7393,     15.000,    2.795314e+00
 376,     4.7285,     15.000,    2.852851e+00
 377,     4.7179,     15.000,    2.817387e+00
 378,     4.6993,     15.000,    9.425984e-02
 379,     4.6870,     15.000,    1.028107e-01
 380,     4.6776,     14.751,    8.546656e-02
 381,     4.6638,     15.000,    1.127938e-01
 382,     4.6525,     15.000,    1.305538e-01
 383,     4.6398,     15.000,    1.424141e-01
 384,     4.6311,     15.000,    7.370144e-02
 385,     4.6238,     15.000,    7.005166e-02
 386,     4.6174,     14.945,    1.293268e-01
 387,     4.6091,     14.867,    8.311773e-02
 388,     4.5963,     15.000,    1.060971e-01
 389,     4.5851,     15.000,    1.253017e-01
 390,     4.5720,     15.000,    9.963946e-02
 391,     4.5628,     15.000,    8.857919e-02
 392,     4.5584,     13.036,    9.841505e-02
 393,     4.5522,     12.481,    1.141088e-01
 394,     4.5435,     13.279,    8.135785e-02
 395,     4.5346,     11.105,    5.368074e-02
 396,     4.5221,      4.366,    2.112157e-02
 397,     4.5149,      8.157,    6.322668e-02
 398,     4.5100,      7.858,    2.584892e-02
 399,     4.4970,     15.000,    1.048212e-01
 400,     4.4824,     15.000,    9.103327e-02
 401,     4.4693,     15.000,    1.088517e-01
 402,     4.4587,     15.000,    2.077942e-01
 403,     4.4471,     15.000,    1.323509e-01
 404,     4.4313,     15.000,    2.919669e-01
 405,     4.4256,     15.000,    4.534354e-01
 406,     4.4204,     11.577,    1.755108e-01
 407,     4.4068,     15.000,    5.979787e-02
 408,     4.3903,     15.000,    1.129357e-01
 409,     4.3717,     15.000,    7.958627e-02
 410,     4.3555,     15.000,    1.308092e-01
 411,     4.3394,     15.000,    4.987073e-02
 412,     4.3311,     15.000,    5.845708e-02
 413,     4.3231,     15.000,    9.018148e-02
 414,     4.3056,     15.000,    1.053809e-01
 415,     4.2946,     15.000,    1.530128e-01
 416,     4.2901,     10.580,    3.334582e-01
 417,     4.2860,      8.952,    2.589964e-01
 418,     4.2821,     10.966,    9.080122e-02
 419,     4.2711,     11.503,    4.209828e-02
 420,     4.2637,     15.000,    1.012573e-01
 421,     4.2494,     15.000,    1.674738e-01
 422,     4.2419,     15.000,    1.991917e-01
 423,     4.2299,     15.000,    9.546617e-02
 424,     4.2209,     15.000,    9.918713e-02
 425,     4.2135,      4.831,    2.456737e-02
 426,     4.2085,      7.837,    5.307710e-02
 427,     4.2001,      8.729,    2.016707e-02
 428,     4.1939,     12.192,    7.660101e-02
 429,     4.1863,      7.680,    4.256119e-02
 430,     4.1796,      9.340,    5.916185e-02
 431,     4.1661,     15.000,    1.074566e-01
 432,     4.1527,     15.000,    7.265341e-02
 433,     4.1395,     11.879,    4.411794e-02
