index,   freq_ppm,   decay_hz, amplitude
   1,     8.9861,     11.880,    9.236692e-02
   2,     8.9738,     15.000,    1.183244e-01
   3,     8.9617,     15.000,    8.119160e-02
   4,     8.9557,      2.285,    1.520622e-02
   5,     8.9450,     15.000,    1.277690e-01
   6,     8.9312,     15.000,    1.094907e-01
   7,     8.9262,      3.862,    2.128642e-02
   8,     8.9204,      6.598,    3.291018e-02
   9,     8.9141,     15.000,    1.001820e-01
  10,     8.9009,     15.000,    1.251053e-01
  11,     8.8893,     15.000,    7.553386e-02
  12,     8.8802,     15.000,    9.957404e-02
  13,     8.8688,     15.000,    8.765607e-02
  14,     8.8520,     15.000,    9.312057e-02
  15,     8.8396,      8.197,    6.680211e-02
  16,     8.8335,     10.873,    6.150037e-02
  17,     8.8193,     15.000,    1.441491e-01
  18,     8.8071,     11.668,    4.186038e-02
  19,     8.8005,     12.406,    4.477483e-02
  20,     8.7913,     12.572,    7.549232e-02
  21,     8.7703,     15.000,    1.317093e-01
  22,     8.7544,     15.000,    9.041695e-02
  23,     8.7374,     15.000,    9.374053e-02
  24,     8.7252,     15.000,    1.235979e-01
  25,     8.7077,     15.000,    1.068838e-01
  26,     8.6936,     15.000,    1.143145e-01
  27,     8.6816,     15.000,    1.190751e-01
  28,     8.6653,     15.000,    1.063577e-01
  29,     8.6504,     15.000,    1.285234e-01
  30,     8.6421,     15.000,    9.747554e-02
  31,     8.6322,     15.000,    8.646599e-02
  32,     8.6171,     15.000,    7.754544e-02
  33,     8.6104,     11.304,    3.308470e-02
  34,     8.6024,     15.000,    7.972016e-02
  35,     8.5954,     12.407,    1.790106e-02
  36,     8.5879,      5.169,    3.366318e-02
  37,     8.5840,     10.920,    4.238869e-02
  38,     8.5641,     15.000,    5.220079e-01
  39,     8.5510,     15.000,    2.850395e-01
  40,     8.5367,     15.000,    2.684628e-01
  41,     8.5205,     15.000,    2.708566e-01
  42,     8.5072,     15.000,    2.040329e-01
  43,     8.4905,     15.000,    1.780666e-01
  44,     8.4832,     15.000,    1.758557e-01
  45,     8.4740,     15.000,    1.382113e-01
  46,     8.4465,      3.013,    6.207156e+00
  47,     8.4453,      2.367,    7.353703e+00
  48,     8.4441,      5.686,    5.809050e+00
  49,     8.4394,     15.000,    1.843866e+00
  50,     8.4266,     15.000,    9.460589e-01
  51,     8.4048,     15.000,    8.143464e-01
  52,     8.3788,     15.000,    7.179714e-01
  53,     8.3452,     13.991,    5.996111e-02
  54,     8.3396,      8.796,    5.578675e-02
  55,     8.3344,     15.000,    1.234155e-01
  56,     8.3207,      9.725,    2.814619e-01
  57,     8.3114,     15.000,    1.043685e-01
  58,     8.2964,     15.000,    1.375133e-01
  59,     8.2881,      7.121,    4.418797e-02
  60,     8.2788,     13.336,    1.114741e-01
  61,     8.2714,     15.000,    8.465242e-02
  62,     8.2606,     15.000,    1.161521e-01
  63,     8.2535,     14.942,    6.966225e-02
  64,     8.2392,     15.000,    1.156269e-01
  65,     8.2222,     15.000,    9.983675e-02
  66,     8.2151,     15.000,    8.492028e-02
  67,     8.2039,     15.000,    7.522894e-02
  68,     8.1932,     15.000,    7.015815e-02
  69,     8.1781,     14.708,    7.432664e-02
  70,     8.1642,     12.292,    5.327875e-02
  71,     8.1544,     11.715,    6.859402e-02
  72,     8.1463,     13.566,    7.751805e-02
  73,     8.1355,     14.838,    6.313691e-02
  74,     8.1139,     15.000,    6.524132e-02
  75,     8.1076,      5.795,    3.253850e-02
  76,     8.1000,     15.000,    8.209562e-02
  77,     8.0842,     15.000,    7.518118e-02
  78,     8.0728,     15.000,    6.323127e-02
  79,     8.0607,     15.000,    7.897742e-02
  80,     8.0419,      8.963,    5.126306e-02
  81,     8.0335,      1.930,    9.887061e-03
  82,     8.0266,     15.000,    7.491478e-02
  83,     8.0131,      9.921,    1.131507e-01
  84,     7.9992,     10.496,    5.895251e-02
  85,     7.9939,      9.207,    4.535583e-02
  86,     7.9808,     14.277,    2.677781e-01
  87,     7.9691,     10.862,    6.799845e-02
  88,     7.9567,     11.599,    6.235217e-02
  89,     7.9509,      9.100,    3.830311e-02
  90,     7.9403,     15.000,    8.185178e-02
  91,     7.9293,     15.000,    7.889067e-02
  92,     7.9209,     14.811,    6.806748e-02
  93,     7.9104,     15.000,    4.804083e-02
  94,     7.8961,     15.000,    9.181124e-02
  95,     7.8818,      8.520,    5.715444e-02
  96,     7.8691,     15.000,    7.137234e-02
  97,     7.8585,     15.000,    1.322058e-01
  98,     7.8481,     15.000,    9.095160e-02
  99,     7.8373,     15.000,    7.631459e-02
 100,     7.8228,     15.000,    1.150298e-01
 101,     7.8100,     15.000,    1.526386e-01
 102,     7.7854,     15.000,    9.980147e-02
 103,     7.7694,     15.000,    9.691490e-02
 104,     7.7600,     10.632,    9.692787e-02
 105,     7.7508,     11.005,    7.191277e-02
 106,     7.7390,     12.020,    8.759118e-02
 107,     7.7307,     12.579,    1.021257e-01
 108,     7.7230,      9.189,    2.811871e-02
 109,     7.7186,     13.823,    8.565247e-02
 110,     7.7096,     15.000,    6.966656e-02
 111,     7.6995,     15.000,    1.168207e-01
 112,     7.6775,     15.000,    8.994949e-02
 113,     7.6668,     15.000,    1.141498e-01
 114,     7.6531,     10.066,    5.243144e-02
 115,     7.6441,     15.000,    1.355677e-01
 116,     7.6307,     15.000,    6.987749e-02
 117,     7.6162,     15.000,    1.218228e-01
 118,     7.6036,     15.000,    1.072398e-01
 119,     7.5871,     15.000,    1.318613e-01
 120,     7.5734,     15.000,    7.804147e-02
 121,     7.5608,     15.000,    1.176908e-01
 122,     7.5521,     14.920,    9.891888e-02
 123,     7.5425,     15.000,    6.372390e-02
 124,     7.5333,     15.000,    1.021462e-01
 125,     7.5274,     15.000,    8.226444e-02
 126,     7.5062,     15.000,    1.311292e-01
 127,     7.4901,     15.000,    1.293853e-01
 128,     7.4785,     14.809,    8.286382e-02
 129,     7.4722,     13.902,    4.251908e-02
 130,     7.4652,     15.000,    5.857154e-02
 131,     7.4527,     11.921,    5.478642e-02
 132,     7.4393,     15.000,    7.824656e-02
 133,     7.4282,     11.900,    1.492579e-01
 134,     7.4180,     13.006,    3.091048e-01
 135,     7.4146,      1.951,    6.636929e-03
 136,     7.4104,      4.856,    4.244636e-02
 137,     7.4083,      8.194,    1.004273e-01
 138,     7.3971,      9.093,    2.274274e-02
 139,     7.3904,     10.014,    4.864388e-02
 140,     7.3765,     13.455,    1.508704e-01
 141,     7.3667,     13.061,    1.614711e-01
 142,     7.3565,     12.821,    1.069303e-01
 143,     7.3459,      7.365,    3.610107e-02
 144,     7.3363,     15.000,    6.445004e-02
 145,     7.3258,      6.716,    1.114466e-01
 146,     7.3235,     11.884,    1.854286e-01
 147,     7.3152,     12.161,    2.957910e-01
 148,     7.3079,     10.212,    4.917502e-02
 149,     7.3002,      6.063,    3.969883e-02
 150,     7.2931,      5.125,    2.487282e-02
 151,     7.2866,      7.398,    5.440061e-02
 152,     7.2815,     10.114,    3.020467e-02
 153,     7.2794,      6.668,    3.777320e-02
 154,     7.2761,      7.984,    2.399797e-02
 155,     7.2738,      4.686,    2.474198e-02
 156,     7.2675,      4.011,    3.655549e-02
 157,     7.2599,     15.000,    6.949914e-02
 158,     7.2468,     15.000,    1.526930e-01
 159,     7.2313,     15.000,    1.159904e-01
 160,     7.2089,     15.000,    5.172984e-02
 161,     7.1986,     15.000,    9.684902e-02
 162,     7.1882,     14.539,    9.524660e-02
 163,     7.1778,     15.000,    1.144887e-01
 164,     7.1604,     15.000,    1.582510e-01
 165,     7.1484,     15.000,    8.825983e-02
 166,     7.1354,     15.000,    1.291663e-01
 167,     7.1283,     12.597,    6.295367e-02
 168,     7.1164,     12.392,    5.586131e-02
 169,     7.1100,     15.000,    7.016970e-02
 170,     7.0953,     15.000,    9.557826e-02
 171,     7.0794,      9.350,    2.011732e-01
 172,     7.0711,      5.997,    3.112791e-02
 173,     7.0641,     12.268,    6.673194e-02
 174,     7.0523,     15.000,    9.737200e-02
 175,     7.0419,      7.074,    5.600563e-02
 176,     7.0336,     14.925,    1.039586e-01
 177,     7.0244,     15.000,    1.343764e-01
 178,     7.0096,     15.000,    1.586834e-01
 179,     6.9944,     15.000,    1.140811e-01
 180,     6.9828,     15.000,    1.032445e-01
 181,     6.9727,     15.000,    1.568056e-01
 182,     6.9620,     15.000,    1.048370e-01
 183,     6.9495,     15.000,    1.177308e-01
 184,     6.9369,     15.000,    1.541971e-01
 185,     6.9279,     14.612,    7.292725e-02
 186,     6.9217,     15.000,    8.160011e-02
 187,     6.9115,     15.000,    1.090734e-01
 188,     6.9036,     15.000,    8.071366e-02
 189,     6.8907,     15.000,    1.577957e-01
 190,     6.8816,     15.000,    7.599123e-02
 191,     6.8692,     15.000,    1.348402e-01
 192,     6.8577,     15.000,    1.228980e-01
 193,     6.8508,     15.000,    1.269303e-01
 194,     6.8346,     15.000,    1.580447e-01
 195,     6.8234,     14.604,    5.182637e-02
 196,     6.8189,     12.952,    8.809274e-02
 197,     6.8132,     13.030,    3.660541e-02
 198,     6.8060,      5.211,    2.726249e-02
 199,     6.7966,     11.618,    5.886453e-02
 200,     6.7844,     15.000,    1.507151e-01
 201,     6.7706,     15.000,    1.047844e-01
 202,     6.7555,     15.000,    9.750778e-02
 203,     6.7331,     15.000,    1.012423e-01
 204,     6.7179,     15.000,    6.369488e-02
 205,     6.7069,     15.000,    9.499563e-02
 206,     6.6958,     15.000,    7.632044e-02
 207,     6.6788,     15.000,    7.720219e-02
 208,     6.6639,     15.000,    9.440728e-02
 209,     6.6535,     15.000,    8.236527e-02
 210,     6.6346,     15.000,    6.864034e-02
 211,     6.6241,     15.000,    1.103724e-01
 212,     6.6104,     15.000,    8.837961e-02
 213,     6.6016,     15.000,    7.578398e-02
 214,     6.5868,     15.000,    1.027756e-01
 215,     6.5742,     15.000,    1.076202e-01
 216,     6.5399,     15.000,    1.370324e-01
 217,     6.5089,     15.000,    9.679449e-02
 218,     6.4907,     15.000,    1.117434e-01
 219,     6.4647,     15.000,    8.082417e-02
 220,     6.4598,     15.000,    8.618139e-02
 221,     6.4484,     15.000,    1.087774e-01
 222,     6.4374,      6.721,    3.388778e-02
 223,     6.4312,     15.000,    1.076962e-01
 224,     6.4221,      7.178,    2.968708e-02
 225,     6.4096,     15.000,    1.148061e-01
 226,     6.3905,     15.000,    7.867838e-02
 227,     6.3791,     15.000,    6.793018e-02
 228,     6.3634,     15.000,    2.236894e-01
 229,     6.3437,     15.000,    1.116129e-01
 230,     6.3311,     15.000,    1.011042e-01
 231,     6.3126,     15.000,    1.252669e-01
 232,     6.2917,     15.000,    1.008105e-01
 233,     6.2748,     15.000,    1.524853e-01
 234,     6.2607,     14.636,    7.517146e-02
 235,     6.2519,     15.000,    9.398645e-02
 236,     6.2367,      9.823,    7.609229e-02
 237,     6.2248,     15.000,    8.713183e-02
 238,     6.2093,     15.000,    1.032253e-01
 239,     6.2018,     15.000,    1.048253e-01
 240,     6.1925,     15.000,    8.419211e-02
 241,     6.1835,     14.727,    8.183706e-02
 242,     6.1714,     15.000,    1.105198e-01
 243,     6.1472,     15.000,    1.457005e-01
 244,     6.1328,     15.000,    8.754622e-02
 245,     6.1219,     15.000,    1.251716e-01
 246,     6.1041,     15.000,    1.119655e-01
 247,     6.0912,     15.000,    6.800512e-02
 248,     6.0753,     15.000,    1.305171e-01
 249,     6.0667,     15.000,    9.421256e-02
 250,     6.0586,     15.000,    1.085723e-01
 251,     6.0474,     15.000,    9.003440e-02
 252,     6.0370,     15.000,    5.774396e-02
 253,     6.0259,     15.000,    1.170173e-01
 254,     6.0116,     15.000,    7.987608e-02
 255,     6.0024,     15.000,    9.459626e-02
 256,     5.9929,      8.180,    7.378051e-02
 257,     5.9853,      6.918,    2.934156e-02
 258,     5.9792,     13.337,    1.027656e-01
 259,     5.9743,     15.000,    1.661078e-01
 260,     5.9604,     15.000,    1.066826e-01
 261,     5.9418,     15.000,    1.201102e-01
 262,     5.9249,     15.000,    9.442029e-02
 263,     5.9158,     15.000,    1.253911e-01
 264,     5.9068,     15.000,    8.723839e-02
 265,     5.8922,     15.000,    1.092840e-01
 266,     5.8699,     15.000,    8.984252e-02
 267,     5.8614,     15.000,    9.885117e-02
 268,     5.8525,     15.000,    5.593638e-02
 269,     5.8450,     14.909,    9.656313e-02
 270,     5.8326,     15.000,    1.103891e-01
 271,     5.8220,     15.000,    1.081944e-01
 272,     5.8077,     15.000,    9.613317e-02
 273,     5.7936,     15.000,    8.053259e-02
 274,     5.7763,     14.644,    1.028079e-01
 275,     5.7676,     15.000,    9.247719e-02
 276,     5.7554,     11.742,    6.049121e-02
 277,     5.7467,     15.000,    8.681558e-02
 278,     5.7364,     15.000,    1.204648e-01
 279,     5.7118,     15.000,    1.006001e-01
 280,     5.6968,     15.000,    9.066278e-02
 281,     5.6868,     15.000,    1.084162e-01
 282,     5.6788,     12.973,    6.371459e-02
 283,     5.6700,      8.788,    4.306269e-02
 284,     5.6633,      8.534,    2.066892e-02
 285,     5.6571,      6.982,    3.604888e-02
 286,     5.6499,     13.500,    5.379942e-02
 287,     5.6368,     10.973,    5.052971e-02
 288,     5.6285,     14.828,    6.866480e-02
 289,     5.6194,     15.000,    8.991944e-02
 290,     5.6043,     15.000,    7.993153e-02
 291,     5.5932,     15.000,    9.476606e-02
 292,     5.5724,     15.000,    9.773177e-02
 293,     5.5642,      5.745,    4.143487e-02
 294,     5.5549,      9.803,    4.922667e-02
 295,     5.5469,     12.354,    6.081112e-02
 296,     5.5425,      8.829,    4.735542e-02
 297,     5.5390,      3.531,    1.804917e-02
 298,     5.5314,     15.000,    1.144031e-01
 299,     5.5210,      7.771,    1.674806e-02
 300,     5.5152,      4.395,    2.185689e-02
 301,     5.5078,      4.809,    1.821832e-02
 302,     5.5022,     14.380,    7.702649e-02
 303,     5.4892,     15.000,    9.134077e-02
 304,     5.4757,     15.000,    6.310455e-02
 305,     5.4673,     15.000,    8.628204e-02
 306,     5.4583,     15.000,    9.154461e-02
 307,     5.4472,     12.790,    7.394382e-02
 308,     5.4379,     15.000,    9.178761e-02
 309,     5.4329,      9.511,    4.599413e-02
 310,     5.4242,     11.792,    5.175240e-02
 311,     5.4187,     12.695,    8.573782e-02
 312,     5.4103,     13.604,    5.867746e-02
 313,     5.4053,     14.385,    5.695390e-02
 314,     5.3905,     13.083,    7.313940e-02
 315,     5.3813,     15.000,    7.078712e-02
 316,     5.3746,     15.000,    6.543055e-02
 317,     5.3631,     10.003,    6.102027e-02
 318,     5.3558,      6.255,    2.682647e-02
 319,     5.3440,     15.000,    8.384116e-02
 320,     5.3341,     15.000,    7.541507e-02
 321,     5.3215,     15.000,    9.982704e-02
 322,     5.2959,     15.000,    1.323556e-01
 323,     5.2681,     15.000,    1.280181e-01
 324,     5.2484,     15.000,    8.979116e-02
 325,     5.2344,     15.000,    1.195462e-01
 326,     5.2266,     15.000,    1.945322e-01
 327,     5.2132,     15.000,    1.591683e-01
 328,     5.1978,     15.000,    1.413246e-01
 329,     5.1829,     15.000,    1.121225e-01
 330,     5.1725,     15.000,    1.277908e-01
 331,     5.1555,     15.000,    1.664167e-01
 332,     5.1394,      6.494,    5.916144e-02
 333,     5.1363,      8.544,    6.963147e-02
 334,     5.1273,      8.209,    4.526853e-02
 335,     5.1201,      9.965,    8.765303e-02
 336,     5.1126,     14.696,    5.866781e-02
 337,     5.1084,     15.000,    8.063362e-02
 338,     5.1035,     15.000,    1.419368e-01
 339,     5.0959,     15.000,    1.098733e-01
 340,     5.0877,     15.000,    1.005075e-01
 341,     5.0721,     15.000,    1.599531e-01
 342,     5.0625,     15.000,    1.117859e-01
 343,     5.0526,      8.566,    6.879925e-02
 344,     5.0455,     13.458,    1.175479e-01
 345,     5.0391,     15.000,    6.101374e-02
 346,     5.0249,     15.000,    1.532733e-01
 347,     5.0109,     15.000,    1.507991e-01
 348,     4.9925,     15.000,    1.673672e-01
 349,     4.9766,     15.000,    1.283590e-01
 350,     4.9671,     15.000,    1.193324e-01
 351,     4.9413,     15.000,    1.108516e-01
 352,     4.9248,     15.000,    9.500968e-02
 353,     4.9102,     14.634,    9.346099e-02
 354,     4.9006,     15.000,    1.064130e-01
 355,     4.8858,     15.000,    8.220545e-02
 356,     4.8680,     15.000,    9.315635e-02
 357,     4.8532,     15.000,    1.047508e-01
 358,     4.8381,     15.000,    9.702812e-01
 359,     4.8272,     15.000,    1.026142e+00
 360,     4.8147,     15.000,    1.029081e+00
 361,     4.8032,     15.000,    9.870709e-01
 362,     4.7912,     15.000,    1.130465e+00
 363,     4.7810,     15.000,    1.508643e+00
 364,     4.7735,     15.000,    6.515850e-01
 365,     4.7658,     15.000,    7.759982e-01
 366,     4.7588,     15.000,    7.822008e-01
 367,     4.7505,     15.000,    7.995844e-01
 368,     4.7415,      9.053,    4.298075e-02
 369,     4.7263,     15.000,    1.066331e-01
 370,     4.7165,     14.821,    6.163350e-02
 371,     4.7057,     15.000,    6.546997e-02
 372,     4.6937,     14.540,    8.655584e-02
 373,     4.6820,     15.000,    1.103629e-01
 374,     4.6705,     15.000,    8.238475e-02
 375,     4.6593,     14.919,    8.829905e-02
 376,     4.6496,     15.000,    9.594562e-02
 377,     4.6397,     15.000,    1.437382e-01
 378,     4.6254,     15.000,    1.496517e-01
 379,     4.6206,      8.484,    4.453349e-02
 380,     4.6146,     15.000,    1.089960e-01
 381,     4.6028,     11.004,    4.707259e-02
 382,     4.5968,     14.122,    5.935973e-02
 383,     4.5909,     14.427,    1.261764e-01
 384,     4.5819,     15.000,    9.733207e-02
 385,     4.5629,     15.000,    1.348530e-01
 386,     4.5514,     15.000,    8.481763e-02
 387,     4.5431,     15.000,    9.320135e-02
 388,     4.5254,     15.000,    1.159508e-01
 389,     4.5028,     15.000,    1.077402e-01
 390,     4.4844,     15.000,    1.104908e-01
 391,     4.4750,     13.581,    7.320289e-02
 392,     4.4656,     15.000,    6.416383e-02
 393,     4.4518,     15.000,    9.050602e-02
 394,     4.4465,      6.526,    4.990984e-02
 395,     4.4398,     13.388,    1.212148e-01
 396,     4.4340,     14.544,    1.185004e-01
 397,     4.4273,     12.253,    6.159946e-02
 398,     4.4211,     12.440,    1.039091e-01
 399,     4.4118,     14.531,    1.064591e-01
 400,     4.4025,     15.000,    9.317664e-02
 401,     4.3865,     15.000,    1.153560e-01
 402,     4.3699,     15.000,    8.527379e-02
 403,     4.3579,     15.000,    8.489568e-02
 404,     4.3374,     15.000,    1.295222e-01
 405,     4.3273,     15.000,    1.224209e-01
 406,     4.3165,     15.000,    7.396421e-02
 407,     4.3012,     15.000,    1.402457e-01
 408,     4.2830,     15.000,    1.829046e-01
 409,     4.2674,     15.000,    1.043020e-01
 410,     4.2525,     15.000,    1.723478e-01
 411,     4.2444,     15.000,    1.331574e-01
 412,     4.2292,     15.000,    1.587380e-01
 413,     4.2131,     15.000,    1.436970e-01
 414,     4.2033,     15.000,    6.737416e-02
 415,     4.1910,     15.000,    1.200871e-01
 416,     4.1809,     15.000,    8.712616e-02
 417,     4.1674,     15.000,    9.994249e-02
 418,     4.1597,     15.000,    1.170497e-01
 419,     4.1532,     15.000,    1.106102e-01
 420,     4.1429,     15.000,    1.777813e-01
 421,     4.1377,      6.113,    2.798247e-02
 422,     4.1307,      5.130,    1.383591e-02
 423,     4.1279,      5.145,    2.713099e-02
 424,     4.1205,     14.101,    9.264556e-02
 425,     4.1124,     15.000,    1.042540e-01
 426,     4.1032,     15.000,    1.489225e-01
 427,     4.0855,     15.000,    1.814060e-01
 428,     4.0737,     15.000,    8.049227e-02
 429,     4.0554,     15.000,    9.926623e-02
 430,     4.0363,     15.000,    7.190075e-02
 431,     4.0136,     15.000,    1.641697e-01
 432,     3.9978,     15.000,    1.965799e-01
 433,     3.9829,     15.000,    2.428424e-01
