index,   freq_ppm,   decay_hz, amplitude
   1,     8.9867,     15.000,    9.378685e-02
   2,     8.9751,     15.000,    6.899851e-02
   3,     8.9628,     15.000,    1.020663e-01
   4,     8.9433,     15.000,    9.810688e-02
   5,     8.9332,     15.000,    9.503565e-02
   6,     8.9189,     15.000,    7.952011e-02
   7,     8.9061,     15.000,    9.220009e-02
   8,     8.8959,     15.000,    8.440481e-02
   9,     8.8812,     12.942,    5.654204e-02
  10,     8.8722,     14.712,    1.379063e-01
  11,     8.8624,      6.408,    3.975404e-02
  12,     8.8553,      6.176,    2.107687e-02
  13,     8.8509,      8.799,    6.753149e-02
  14,     8.8444,     11.038,    6.020720e-02
  15,     8.8338,     11.525,    5.309446e-02
  16,     8.8291,     15.000,    1.101468e-01
  17,     8.8202,     15.000,    7.428364e-02
  18,     8.8090,     15.000,    8.706609e-02
  19,     8.7984,      4.564,    2.155614e-02
  20,     8.7895,     15.000,    1.216372e-01
  21,     8.7780,     15.000,    1.149490e-01
  22,     8.7622,     15.000,    8.248653e-02
  23,     8.7481,     15.000,    8.579396e-02
  24,     8.7279,     15.000,    1.063296e-01
  25,     8.7179,     14.966,    7.558490e-02
  26,     8.7026,     15.000,    1.178088e-01
  27,     8.6970,      8.556,    5.072737e-02
  28,     8.6894,     10.998,    4.996903e-02
  29,     8.6815,     12.248,    7.178346e-02
  30,     8.6729,     14.324,    5.465785e-02
  31,     8.6664,      4.541,    2.809091e-02
  32,     8.6621,     12.322,    8.999573e-02
  33,     8.6510,     10.254,    4.158898e-02
  34,     8.6424,      4.259,    1.111817e-02
  35,     8.6341,     15.000,    8.932494e-02
  36,     8.6242,     14.288,    4.766708e-02
  37,     8.6115,     10.587,    5.995953e-02
  38,     8.6015,     15.000,    1.324153e-01
  39,     8.5899,     15.000,    1.037483e-01
  40,     8.5819,     15.000,    1.163417e-01
  41,     8.5736,     14.014,    5.731464e-02
  42,     8.5639,     14.030,    3.335306e-01
  43,     8.5513,     15.000,    1.181156e-01
  44,     8.5364,     15.000,    1.378610e-01
  45,     8.5246,     15.000,    8.787356e-02
  46,     8.5175,     15.000,    8.870855e-02
  47,     8.5028,     15.000,    7.648607e-02
  48,     8.4968,     15.000,    8.923675e-02
  49,     8.4856,     15.000,    2.711484e-01
  50,     8.4468,      2.983,    3.964994e+00
  51,     8.4456,      1.552,    4.959830e+00
  52,     8.4444,      3.381,    4.426774e+00
  53,     8.4423,     11.831,    2.198116e+00
  54,     8.4344,     15.000,    7.057924e-01
  55,     8.4237,     15.000,    6.527227e-01
  56,     8.4210,     15.000,    2.282326e-01
  57,     8.4124,     15.000,    1.468440e-01
  58,     8.4024,     15.000,    1.159668e-01
  59,     8.3862,     15.000,    1.159037e-01
  60,     8.3744,     15.000,    9.970481e-02
  61,     8.3647,     15.000,    9.858336e-02
  62,     8.3516,     14.712,    9.180601e-02
  63,     8.3431,      8.953,    6.812871e-02
  64,     8.3366,     10.377,    6.295265e-02
  65,     8.3206,     15.000,    3.405536e-01
  66,     8.3037,     14.996,    1.303274e-01
  67,     8.2865,     15.000,    1.299271e-01
  68,     8.2603,     15.000,    1.019653e-01
  69,     8.2431,     15.000,    1.143103e-01
  70,     8.2252,     15.000,    1.204911e-01
  71,     8.2020,     15.000,    1.411723e-01
  72,     8.1702,     15.000,    1.141033e-01
  73,     8.1540,     15.000,    9.147589e-02
  74,     8.1409,     15.000,    1.041162e-01
  75,     8.1284,     15.000,    9.363115e-02
  76,     8.1154,     15.000,    5.828695e-02
  77,     8.0954,     15.000,    1.050545e-01
  78,     8.0817,     15.000,    9.123636e-02
  79,     8.0660,     15.000,    1.180175e-01
  80,     8.0463,     15.000,    9.243217e-02
  81,     8.0350,     15.000,    7.730196e-02
  82,     8.0202,     15.000,    8.343852e-02
  83,     8.0110,     15.000,    1.076551e-01
  84,     8.0001,     15.000,    1.121231e-01
  85,     7.9812,     15.000,    2.105167e-01
  86,     7.9368,     15.000,    1.147366e-01
  87,     7.9148,     15.000,    1.023589e-01
  88,     7.9021,     15.000,    1.023154e-01
  89,     7.8750,     15.000,    3.420521e-01
  90,     7.8653,     13.538,    1.036680e-01
  91,     7.8549,     15.000,    1.074144e-01
  92,     7.8418,     15.000,    1.378066e-01
  93,     7.8299,     15.000,    9.749626e-02
  94,     7.8164,     15.000,    1.504568e-01
  95,     7.8033,     15.000,    9.709709e-02
  96,     7.7945,     15.000,    8.386592e-02
  97,     7.7834,     13.935,    5.159829e-02
  98,     7.7761,     14.636,    6.899010e-02
  99,     7.7717,      4.990,    2.961602e-02
 100,     7.7685,     13.778,    7.319228e-02
 101,     7.7594,     12.426,    7.893144e-02
 102,     7.7513,     15.000,    4.587829e-02
 103,     7.7395,     15.000,    8.176752e-02
 104,     7.7272,     15.000,    7.772004e-02
 105,     7.7160,     11.170,    7.360217e-02
 106,     7.7098,      8.887,    4.163443e-02
 107,     7.6946,     15.000,    1.213868e-01
 108,     7.6768,     13.072,    1.262188e-01
 109,     7.6652,      9.913,    3.561629e-02
 110,     7.6576,     15.000,    8.669931e-02
 111,     7.6481,     15.000,    6.957145e-02
 112,     7.6384,     15.000,    1.015337e-01
 113,     7.6201,     15.000,    6.203811e-02
 114,     7.6095,      9.875,    9.156436e-02
 115,     7.6002,     13.269,    2.206611e-02
 116,     7.5945,     14.509,    1.025943e-01
 117,     7.5881,     14.685,    5.045153e-02
 118,     7.5787,     15.000,    1.239560e-01
 119,     7.5706,      8.978,    3.597368e-02
 120,     7.5569,     15.000,    1.310599e-01
 121,     7.5463,     15.000,    1.386796e-01
 122,     7.5325,     15.000,    8.077745e-02
 123,     7.5229,     15.000,    1.156807e-01
 124,     7.5124,     15.000,    1.189337e-01
 125,     7.5043,     15.000,    9.976573e-02
 126,     7.4924,     15.000,    1.080017e-01
 127,     7.4813,     15.000,    1.042912e-01
 128,     7.4685,     15.000,    1.366978e-01
 129,     7.4614,     15.000,    7.958797e-02
 130,     7.4467,     15.000,    1.335419e-01
 131,     7.4405,     11.982,    4.837117e-02
 132,     7.4325,     11.649,    1.013293e-01
 133,     7.4271,     13.365,    1.055590e-01
 134,     7.4176,     14.976,    2.883506e-01
 135,     7.4090,     11.715,    1.543285e-01
 136,     7.4021,      8.746,    5.935540e-02
 137,     7.3958,      8.552,    5.327044e-02
 138,     7.3857,     13.350,    5.511650e-02
 139,     7.3762,     15.000,    1.408805e-01
 140,     7.3660,     15.000,    1.681385e-01
 141,     7.3567,     15.000,    8.939309e-02
 142,     7.3489,      5.521,    2.572091e-02
 143,     7.3430,     10.589,    4.076659e-02
 144,     7.3336,      8.021,    4.881145e-02
 145,     7.3246,     11.495,    1.674499e-01
 146,     7.3145,     15.000,    2.372016e-01
 147,     7.3015,     15.000,    1.027507e-01
 148,     7.2926,     15.000,    8.304490e-02
 149,     7.2838,     15.000,    1.130582e-01
 150,     7.2693,     15.000,    1.427574e-01
 151,     7.2565,     15.000,    1.302563e-01
 152,     7.2418,     15.000,    1.337965e-01
 153,     7.2315,     15.000,    9.608135e-02
 154,     7.2170,     15.000,    1.268016e-01
 155,     7.1905,     13.768,    1.447017e-01
 156,     7.1837,     15.000,    7.303325e-02
 157,     7.1720,     10.925,    8.554886e-02
 158,     7.1629,     15.000,    9.617160e-02
 159,     7.1514,     15.000,    6.974511e-02
 160,     7.1417,      4.026,    2.815113e-02
 161,     7.1348,     15.000,    1.024659e-01
 162,     7.1291,      5.851,    2.053481e-02
 163,     7.1225,     14.507,    5.905603e-02
 164,     7.1143,      7.658,    3.188289e-02
 165,     7.1037,     15.000,    8.232999e-02
 166,     7.0917,     15.000,    1.195214e-01
 167,     7.0867,      3.275,    5.032633e-03
 168,     7.0832,      0.078,    7.407956e-03
 169,     7.0792,      7.712,    1.084821e-01
 170,     7.0723,     15.000,    1.212222e-01
 171,     7.0550,     15.000,    9.838854e-02
 172,     7.0444,     15.000,    1.040870e-01
 173,     7.0350,     15.000,    9.886841e-02
 174,     7.0233,     15.000,    1.266998e-01
 175,     7.0140,     14.972,    5.506179e-02
 176,     7.0083,     14.209,    9.244080e-02
 177,     6.9940,     14.655,    7.480170e-02
 178,     6.9869,     15.000,    5.603199e-02
 179,     6.9787,     15.000,    1.042438e-01
 180,     6.9666,     15.000,    9.157717e-02
 181,     6.9529,     15.000,    1.186236e-01
 182,     6.9329,     15.000,    1.263953e-01
 183,     6.9211,     15.000,    8.022702e-02
 184,     6.9024,     15.000,    1.115168e-01
 185,     6.8903,     15.000,    1.284072e-01
 186,     6.8685,     15.000,    1.984018e-01
 187,     6.8452,     15.000,    1.344164e-01
 188,     6.8319,     15.000,    1.638914e-01
 189,     6.8200,     15.000,    1.139189e-01
 190,     6.8105,     15.000,    1.270669e-01
 191,     6.7966,     15.000,    1.484806e-01
 192,     6.7851,     15.000,    1.728188e-01
 193,     6.7770,     15.000,    6.956528e-02
 194,     6.7713,     14.163,    7.788738e-02
 195,     6.7623,     14.976,    9.841002e-02
 196,     6.7529,     15.000,    1.377311e-01
 197,     6.7417,     15.000,    8.856381e-02
 198,     6.7292,     15.000,    1.099594e-01
 199,     6.7199,     15.000,    9.567375e-02
 200,     6.7069,     15.000,    7.730233e-02
 201,     6.6916,     15.000,    9.093405e-02
 202,     6.6712,     15.000,    1.206605e-01
 203,     6.6620,     15.000,    7.288624e-02
 204,     6.6527,     15.000,    7.197795e-02
 205,     6.6444,     15.000,    1.382140e-01
 206,     6.6323,     15.000,    7.365148e-02
 207,     6.6230,     15.000,    1.198668e-01
 208,     6.6148,     15.000,    1.048782e-01
 209,     6.6059,      9.463,    5.211115e-02
 210,     6.5942,     11.176,    6.225214e-02
 211,     6.5826,     15.000,    8.993202e-02
 212,     6.5718,     15.000,    1.176626e-01
 213,     6.5562,     15.000,    1.090178e-01
 214,     6.5475,     10.596,    8.719073e-02
 215,     6.5342,     14.597,    8.208721e-02
 216,     6.5239,     14.973,    7.185045e-02
 217,     6.5131,      5.608,    3.428426e-02
 218,     6.5058,     13.596,    8.272867e-02
 219,     6.4965,     15.000,    7.365618e-02
 220,     6.4822,     15.000,    6.658136e-02
 221,     6.4725,     15.000,    9.767289e-02
 222,     6.4574,     15.000,    1.073471e-01
 223,     6.4439,     15.000,    8.688861e-02
 224,     6.4219,     13.643,    7.289114e-02
 225,     6.4082,     15.000,    1.548353e-01
 226,     6.3959,     15.000,    9.419527e-02
 227,     6.3801,     15.000,    9.815137e-02
 228,     6.3700,     15.000,    1.021309e-01
 229,     6.3631,     15.000,    1.904796e-01
 230,     6.3370,     15.000,    1.117291e-01
 231,     6.3227,     15.000,    9.000466e-02
 232,     6.3107,     15.000,    1.452979e-01
 233,     6.3035,     15.000,    7.195359e-02
 234,     6.2949,     14.690,    1.170407e-01
 235,     6.2842,     15.000,    8.794230e-02
 236,     6.2617,     15.000,    8.240046e-02
 237,     6.2520,      4.667,    2.643396e-02
 238,     6.2480,      5.536,    1.352002e-02
 239,     6.2411,      9.300,    5.548023e-02
 240,     6.2314,      6.189,    2.809613e-02
 241,     6.2246,     15.000,    4.955225e-02
 242,     6.2172,      8.193,    3.558347e-02
 243,     6.2113,     14.973,    1.105340e-01
 244,     6.2032,     14.505,    8.159993e-02
 245,     6.1874,     15.000,    8.981027e-02
 246,     6.1743,     15.000,    1.113403e-01
 247,     6.1654,     11.664,    8.210273e-02
 248,     6.1476,     15.000,    1.217301e-01
 249,     6.1317,     15.000,    7.667026e-02
 250,     6.1208,     15.000,    8.953255e-02
 251,     6.1060,     15.000,    1.074771e-01
 252,     6.0993,     15.000,    9.678655e-02
 253,     6.0921,     14.510,    7.437830e-02
 254,     6.0812,     15.000,    7.418737e-02
 255,     6.0733,     15.000,    7.602601e-02
 256,     6.0629,      9.354,    3.920227e-02
 257,     6.0562,      5.804,    3.034765e-02
 258,     6.0503,     15.000,    9.587611e-02
 259,     6.0396,      8.132,    2.651785e-02
 260,     6.0326,     14.465,    5.136132e-02
 261,     6.0215,     15.000,    6.731413e-02
 262,     6.0106,     14.870,    7.102973e-02
 263,     5.9859,     15.000,    1.334801e-01
 264,     5.9715,     15.000,    1.726634e-01
 265,     5.9475,     15.000,    1.514834e-01
 266,     5.9236,     15.000,    1.149648e-01
 267,     5.9059,     15.000,    1.196192e-01
 268,     5.8934,     15.000,    1.230892e-01
 269,     5.8751,     15.000,    1.031363e-01
 270,     5.8644,      8.683,    5.049144e-02
 271,     5.8571,     15.000,    9.880453e-02
 272,     5.8439,     15.000,    8.970070e-02
 273,     5.8308,     15.000,    1.135741e-01
 274,     5.8190,     15.000,    1.239949e-01
 275,     5.8106,     11.161,    1.091561e-01
 276,     5.7983,     15.000,    9.969615e-02
 277,     5.7841,     15.000,    8.180502e-02
 278,     5.7709,     15.000,    1.131653e-01
 279,     5.7562,     15.000,    1.393177e-01
 280,     5.7325,     15.000,    1.394444e-01
 281,     5.7191,     15.000,    1.965289e-01
 282,     5.7032,     15.000,    1.127916e-01
 283,     5.6948,     15.000,    9.464273e-02
 284,     5.6817,     15.000,    1.097532e-01
 285,     5.6739,     15.000,    1.355264e-01
 286,     5.6637,     15.000,    1.498908e-01
 287,     5.6570,      9.064,    5.201640e-02
 288,     5.6461,     15.000,    1.165491e-01
 289,     5.6414,      9.647,    4.511175e-02
 290,     5.6334,      7.827,    3.857650e-02
 291,     5.6239,     15.000,    1.106924e-01
 292,     5.6134,     15.000,    1.082118e-01
 293,     5.6032,     10.107,    8.900634e-02
 294,     5.5923,     15.000,    9.575251e-02
 295,     5.5748,     15.000,    9.716127e-02
 296,     5.5597,     15.000,    7.977239e-02
 297,     5.5351,     15.000,    7.436079e-02
 298,     5.5224,     15.000,    7.122371e-02
 299,     5.5117,      0.885,    9.556995e-03
 300,     5.5076,      7.246,    4.066406e-02
 301,     5.5017,     12.130,    5.962500e-02
 302,     5.4947,     15.000,    7.337667e-02
 303,     5.4819,     15.000,    8.270977e-02
 304,     5.4718,     15.000,    7.271556e-02
 305,     5.4581,     14.497,    5.887900e-02
 306,     5.4517,     14.803,    8.389160e-02
 307,     5.4418,     15.000,    1.113685e-01
 308,     5.4314,     11.326,    4.222967e-02
 309,     5.4232,     15.000,    9.366599e-02
 310,     5.4135,      6.021,    1.612674e-02
 311,     5.4078,     11.160,    8.968510e-02
 312,     5.4031,      6.349,    4.602598e-02
 313,     5.3956,      9.127,    4.763460e-02
 314,     5.3896,     14.456,    7.057697e-02
 315,     5.3764,     15.000,    9.747279e-02
 316,     5.3689,      2.451,    1.369651e-02
 317,     5.3583,     15.000,    1.040628e-01
 318,     5.3459,     15.000,    8.997707e-02
 319,     5.3279,     15.000,    1.132332e-01
 320,     5.3067,     15.000,    1.109582e-01
 321,     5.2925,     15.000,    1.119878e-01
 322,     5.2773,     15.000,    9.944239e-02
 323,     5.2645,     15.000,    1.189241e-01
 324,     5.2539,     15.000,    7.786439e-02
 325,     5.2426,     15.000,    9.010027e-02
 326,     5.2291,     15.000,    1.535527e-01
 327,     5.2165,     15.000,    8.205961e-02
 328,     5.2000,     15.000,    1.168091e-01
 329,     5.1881,     15.000,    1.635783e-01
 330,     5.1757,     15.000,    1.360079e-01
 331,     5.1614,     15.000,    1.274077e-01
 332,     5.1440,     15.000,    1.595384e-01
 333,     5.1211,     15.000,    1.347092e-01
 334,     5.1004,     15.000,    9.783906e-02
 335,     5.0765,     15.000,    1.019946e-01
 336,     5.0658,     15.000,    1.182222e-01
 337,     5.0510,     15.000,    1.003063e-01
 338,     5.0295,     15.000,    8.051796e-02
 339,     5.0199,     15.000,    8.810414e-02
 340,     4.9949,     15.000,    9.926955e-02
 341,     4.9906,     10.019,    7.461793e-02
 342,     4.9834,      9.747,    8.002358e-02
 343,     4.9790,     12.050,    4.837378e-02
 344,     4.9750,      4.920,    3.264200e-02
 345,     4.9703,      2.492,    1.031446e-02
 346,     4.9639,      6.640,    2.368397e-02
 347,     4.9558,     15.000,    1.067852e-01
 348,     4.9497,     14.776,    1.404908e-01
 349,     4.9421,      9.850,    6.008872e-02
 350,     4.9305,     15.000,    8.410420e-02
 351,     4.9254,      6.850,    3.157704e-02
 352,     4.9159,     15.000,    6.569126e-02
 353,     4.8990,     15.000,    8.870146e-02
 354,     4.8937,      5.192,    3.555274e-02
 355,     4.8872,     15.000,    1.368663e-01
 356,     4.8803,     15.000,    6.594618e-02
 357,     4.8740,     15.000,    9.788853e-02
 358,     4.8691,     15.000,    1.230568e-01
 359,     4.8583,     14.457,    1.046125e-01
 360,     4.8469,     15.000,    2.063845e+00
 361,     4.8289,     15.000,    1.952214e+00
 362,     4.8126,     15.000,    1.936953e+00
 363,     4.7931,     15.000,    1.931334e+00
 364,     4.7784,      3.398,    1.410081e+00
 365,     4.7690,     15.000,    2.181631e+00
 366,     4.7526,     15.000,    2.207782e+00
 367,     4.7397,     15.000,    1.075968e-01
 368,     4.7328,      9.295,    6.676544e-02
 369,     4.7245,     10.365,    3.997330e-02
 370,     4.7156,     15.000,    9.343128e-02
 371,     4.7037,     15.000,    1.202179e-01
 372,     4.6905,     15.000,    1.203713e-01
 373,     4.6776,      6.884,    3.708763e-02
 374,     4.6702,     15.000,    7.080636e-02
 375,     4.6629,     14.534,    8.025409e-02
 376,     4.6542,     14.651,    8.167669e-02
 377,     4.6402,     15.000,    6.865608e-02
 378,     4.6207,     15.000,    7.445517e-02
 379,     4.6158,     12.563,    7.227140e-02
 380,     4.6086,     13.186,    1.115932e-01
 381,     4.5925,     15.000,    1.386889e-01
 382,     4.5758,     15.000,    8.443286e-02
 383,     4.5622,     15.000,    1.017000e-01
 384,     4.5540,     15.000,    9.681315e-02
 385,     4.5477,     15.000,    9.138595e-02
 386,     4.5387,     15.000,    8.035152e-02
 387,     4.5315,      7.858,    2.969834e-02
 388,     4.5227,     11.932,    8.748507e-02
 389,     4.5118,     10.684,    6.652549e-02
 390,     4.5015,     14.979,    1.092506e-01
 391,     4.4941,     15.000,    1.224789e-01
 392,     4.4775,     15.000,    9.262466e-02
 393,     4.4667,     15.000,    5.470513e-02
 394,     4.4586,     15.000,    9.319840e-02
 395,     4.4460,     15.000,    7.792731e-02
 396,     4.4341,      5.340,    3.931991e-02
 397,     4.4265,     14.466,    4.682799e-02
 398,     4.4162,      8.884,    5.065524e-02
 399,     4.4087,      7.328,    1.695025e-02
 400,     4.4041,     14.720,    1.020798e-01
 401,     4.3925,     14.382,    5.908926e-02
 402,     4.3807,      9.997,    3.494716e-02
 403,     4.3690,     15.000,    1.044255e-01
 404,     4.3577,     14.731,    1.436681e-01
 405,     4.3510,     15.000,    4.747351e-02
 406,     4.3400,     15.000,    9.339956e-02
 407,     4.3296,     15.000,    1.133763e-01
 408,     4.3196,     15.000,    1.200661e-01
 409,     4.3007,     15.000,    9.228714e-02
 410,     4.2931,     15.000,    1.050181e-01
 411,     4.2772,      8.930,    5.136262e-02
 412,     4.2696,     14.207,    8.618046e-02
 413,     4.2594,     15.000,    8.717019e-02
 414,     4.2479,     15.000,    1.326125e-01
 415,     4.2411,     15.000,    7.579718e-02
 416,     4.2339,      6.207,    3.161924e-02
 417,     4.2262,     15.000,    1.416105e-01
 418,     4.2123,     15.000,    1.596241e-01
 419,     4.1915,     15.000,    1.007425e-01
 420,     4.1804,     15.000,    1.528384e-01
 421,     4.1714,     15.000,    1.230181e-01
 422,     4.1615,     15.000,    1.285329e-01
 423,     4.1474,     15.000,    1.176230e-01
 424,     4.1376,     15.000,    1.190754e-01
 425,     4.1293,     12.972,    9.382647e-02
 426,     4.1241,     11.122,    1.234697e-01
 427,     4.1187,      7.529,    4.787339e-02
 428,     4.1129,     12.582,    1.187021e-01
 429,     4.1032,     15.000,    1.405258e-01
 430,     4.0871,     15.000,    1.126136e-01
 431,     4.0724,     15.000,    9.969065e-02
 432,     4.0450,     15.000,    1.264120e-01
 433,     4.0247,     15.000,    1.871695e-01
