index,   freq_ppm,   decay_hz, amplitude
   1,     8.9933,     13.314,    7.810315e-02
   2,     8.9846,      4.939,    2.795995e-02
   3,     8.9780,      8.627,    3.927130e-02
   4,     8.9707,      8.321,    3.536440e-02
   5,     8.9618,      8.466,    5.293374e-02
   6,     8.9542,      9.199,    5.092410e-02
   7,     8.9449,     14.801,    6.424198e-02
   8,     8.9352,     15.000,    6.001077e-02
   9,     8.9262,     13.558,    8.159239e-02
  10,     8.9185,      5.333,    3.614829e-02
  11,     8.9056,      7.530,    3.673757e-02
  12,     8.8993,     12.957,    8.487235e-02
  13,     8.8892,     13.818,    1.087647e-01
  14,     8.8778,     15.000,    4.978686e-02
  15,     8.8690,     15.000,    7.497108e-02
  16,     8.8594,      7.527,    3.883193e-02
  17,     8.8519,     11.027,    4.941839e-02
  18,     8.8453,     15.000,    4.969371e-02
  19,     8.8347,     15.000,    7.641403e-02
  20,     8.8252,      7.469,    3.500468e-02
  21,     8.8159,     13.820,    3.587385e-02
  22,     8.8088,     15.000,    5.981388e-02
  23,     8.7947,      9.339,    5.785656e-02
  24,     8.7834,     15.000,    8.552065e-02
  25,     8.7702,     10.586,    5.361770e-02
  26,     8.7616,     15.000,    1.084122e-01
  27,     8.7400,     15.000,    7.705162e-02
  28,     8.7224,     15.000,    1.127034e-01
  29,     8.7062,     15.000,    6.906057e-02
  30,     8.6978,     15.000,    7.763112e-02
  31,     8.6879,     15.000,    6.560423e-02
  32,     8.6757,     12.926,    7.264469e-02
  33,     8.6684,     15.000,    1.047064e-01
  34,     8.6545,     15.000,    9.559190e-02
  35,     8.6388,     15.000,    1.178713e-01
  36,     8.6236,     15.000,    6.084562e-02
  37,     8.6077,     15.000,    1.182888e-01
  38,     8.5945,     15.000,    5.055439e-02
  39,     8.5844,     15.000,    6.280525e-02
  40,     8.5644,      9.967,    2.480621e-01
  41,     8.5558,     15.000,    6.722794e-02
  42,     8.5400,     15.000,    8.860950e-02
  43,     8.5310,     15.000,    9.321538e-02
  44,     8.5246,     15.000,    1.161925e-01
  45,     8.5143,     15.000,    1.124723e-01
  46,     8.5011,     15.000,    9.726733e-02
  47,     8.4940,     10.716,    5.481063e-02
  48,     8.4844,      9.309,    7.118697e-02
  49,     8.4709,     15.000,    6.486178e-02
  50,     8.4469,      3.448,    4.577393e+00
  51,     8.4457,      1.791,    5.770366e+00
  52,     8.4445,      3.284,    5.650425e+00
  53,     8.4427,     10.682,    2.324389e+00
  54,     8.4344,     15.000,    5.429709e-01
  55,     8.4226,     15.000,    4.567980e-01
  56,     8.4013,     15.000,    4.084499e-01
  57,     8.3500,     15.000,    1.277715e-01
  58,     8.3404,      4.731,    2.589026e-02
  59,     8.3314,     15.000,    1.238770e-01
  60,     8.3208,      8.266,    1.804576e-01
  61,     8.3135,     15.000,    8.414818e-02
  62,     8.3034,      4.204,    2.230854e-02
  63,     8.2986,     15.000,    9.764889e-02
  64,     8.2857,     15.000,    8.927599e-02
  65,     8.2780,     11.035,    7.024806e-02
  66,     8.2667,     15.000,    8.475979e-02
  67,     8.2593,     15.000,    8.599050e-02
  68,     8.2446,     10.541,    6.006523e-02
  69,     8.2371,     15.000,    4.582876e-02
  70,     8.2272,     15.000,    6.919373e-02
  71,     8.2190,     15.000,    8.061533e-02
  72,     8.2050,     15.000,    7.800543e-02
  73,     8.1977,     15.000,    9.275445e-02
  74,     8.1889,     15.000,    1.134976e-01
  75,     8.1787,     15.000,    1.232813e-01
  76,     8.1700,     15.000,    9.024489e-02
  77,     8.1591,     15.000,    8.421059e-02
  78,     8.1386,     15.000,    1.086018e-01
  79,     8.1297,     15.000,    1.071844e-01
  80,     8.1098,     15.000,    9.533805e-02
  81,     8.0873,     15.000,    9.669656e-02
  82,     8.0742,     15.000,    6.552524e-02
  83,     8.0597,     15.000,    1.010539e-01
  84,     8.0512,      9.189,    5.129829e-02
  85,     8.0408,     15.000,    1.279036e-01
  86,     8.0229,     15.000,    1.070261e-01
  87,     8.0040,     15.000,    6.925702e-02
  88,     7.9912,     13.626,    8.809705e-02
  89,     7.9820,     15.000,    9.772974e-02
  90,     7.9681,     15.000,    9.292190e-02
  91,     7.9569,     15.000,    5.749686e-02
  92,     7.9438,     15.000,    1.302376e-01
  93,     7.9306,     15.000,    1.391544e-01
  94,     7.9155,     15.000,    9.554920e-02
  95,     7.9009,     15.000,    1.188634e-01
  96,     7.8844,     15.000,    1.288211e-01
  97,     7.8671,     15.000,    1.346681e-01
  98,     7.8578,     15.000,    9.515745e-02
  99,     7.8484,     15.000,    8.245419e-02
 100,     7.8293,     15.000,    1.105564e-01
 101,     7.8157,     15.000,    9.304192e-02
 102,     7.8046,     15.000,    1.361145e-01
 103,     7.7875,     15.000,    7.290965e-02
 104,     7.7778,     15.000,    1.448057e-01
 105,     7.7657,     12.974,    9.225315e-02
 106,     7.7609,      9.720,    5.489725e-02
 107,     7.7515,      3.826,    2.640975e-02
 108,     7.7450,     15.000,    9.015903e-02
 109,     7.7329,     15.000,    1.104653e-01
 110,     7.7225,     15.000,    1.100731e-01
 111,     7.7215,     15.000,    1.127232e-01
 112,     7.6995,     15.000,    9.026029e-02
 113,     7.6841,     15.000,    8.760666e-02
 114,     7.6724,     14.970,    6.841888e-02
 115,     7.6577,     15.000,    1.084534e-01
 116,     7.6472,     15.000,    1.120447e-01
 117,     7.6329,     11.739,    9.196509e-02
 118,     7.6238,     15.000,    9.947788e-02
 119,     7.6156,      9.174,    7.820337e-02
 120,     7.6039,     15.000,    9.251699e-02
 121,     7.5968,     15.000,    1.015665e-01
 122,     7.5859,     15.000,    1.272449e-01
 123,     7.5664,     15.000,    7.176693e-02
 124,     7.5531,     15.000,    1.104071e-01
 125,     7.5412,     15.000,    1.371623e-01
 126,     7.5268,     15.000,    1.207127e-01
 127,     7.5074,     15.000,    1.367044e-01
 128,     7.4976,      7.397,    4.008557e-02
 129,     7.4880,     15.000,    5.160652e-02
 130,     7.4812,      9.469,    7.984533e-02
 131,     7.4733,     10.801,    1.055567e-01
 132,     7.4691,     11.773,    5.716957e-02
 133,     7.4587,     15.000,    1.004674e-01
 134,     7.4412,     15.000,    1.208712e-01
 135,     7.4237,     15.000,    1.372851e-01
 136,     7.4069,     15.000,    1.019907e-01
 137,     7.3891,     15.000,    1.459845e-01
 138,     7.3732,     15.000,    1.451143e-01
 139,     7.3579,      1.270,    8.434501e-03
 140,     7.3551,      3.962,    2.672189e-02
 141,     7.3470,     13.043,    6.120512e-02
 142,     7.3410,     15.000,    7.750452e-02
 143,     7.3321,     15.000,    8.404865e-02
 144,     7.3165,     15.000,    8.788275e-02
 145,     7.3066,     15.000,    9.781717e-02
 146,     7.2876,     15.000,    1.180385e-01
 147,     7.2677,     15.000,    1.453012e-01
 148,     7.2533,     15.000,    1.096328e-01
 149,     7.2438,     15.000,    3.249850e-02
 150,     7.2389,      6.592,    6.118223e-02
 151,     7.2318,     15.000,    7.634526e-02
 152,     7.2247,     12.567,    1.110126e-01
 153,     7.2190,      9.289,    5.366535e-02
 154,     7.2075,      6.578,    4.296178e-02
 155,     7.2037,      8.169,    3.159373e-02
 156,     7.1974,      1.073,    1.087621e-02
 157,     7.1938,     12.783,    1.066677e-01
 158,     7.1814,     15.000,    1.095161e-01
 159,     7.1738,     15.000,    1.260193e-01
 160,     7.1525,     15.000,    1.177226e-01
 161,     7.1384,     15.000,    1.034128e-01
 162,     7.1244,     15.000,    1.125011e-01
 163,     7.1129,     15.000,    1.153472e-01
 164,     7.0962,     15.000,    8.101714e-02
 165,     7.0856,     12.897,    8.279432e-02
 166,     7.0791,      8.369,    1.518140e-01
 167,     7.0723,      4.889,    2.060998e-02
 168,     7.0688,      4.672,    2.472188e-02
 169,     7.0588,     12.683,    4.823492e-02
 170,     7.0517,      8.542,    5.514657e-02
 171,     7.0460,      8.113,    6.310736e-02
 172,     7.0346,     15.000,    9.835357e-02
 173,     7.0196,     15.000,    1.015713e-01
 174,     7.0114,      0.475,    8.480938e-03
 175,     7.0002,     15.000,    9.912845e-02
 176,     6.9883,      3.937,    2.813113e-02
 177,     6.9823,     12.122,    4.253033e-02
 178,     6.9732,     14.123,    7.459116e-02
 179,     6.9644,     15.000,    1.404855e-01
 180,     6.9540,     15.000,    6.447060e-02
 181,     6.9443,     15.000,    1.004516e-01
 182,     6.9232,     15.000,    1.434731e-01
 183,     6.9017,     15.000,    1.542926e-01
 184,     6.8848,     10.941,    5.858967e-02
 185,     6.8751,     15.000,    7.481316e-02
 186,     6.8590,     15.000,    8.891159e-02
 187,     6.8480,      7.576,    5.058899e-02
 188,     6.8438,      5.310,    3.472112e-02
 189,     6.8343,     15.000,    1.381565e-01
 190,     6.8222,     14.927,    1.077389e-01
 191,     6.8040,     15.000,    5.533128e-02
 192,     6.7905,     15.000,    8.139708e-02
 193,     6.7689,     15.000,    6.963143e-02
 194,     6.7562,     15.000,    7.956678e-02
 195,     6.7412,     15.000,    8.758182e-02
 196,     6.7273,     15.000,    9.097058e-02
 197,     6.7209,     11.108,    4.790125e-02
 198,     6.7058,     15.000,    8.791716e-02
 199,     6.7001,      7.408,    5.578429e-02
 200,     6.6930,     15.000,    1.272134e-01
 201,     6.6733,     15.000,    1.107223e-01
 202,     6.6621,     15.000,    9.618831e-02
 203,     6.6487,     15.000,    1.356418e-01
 204,     6.6327,     15.000,    1.054371e-01
 205,     6.6200,     15.000,    1.042440e-01
 206,     6.6066,     15.000,    6.279776e-02
 207,     6.5948,     15.000,    1.233303e-01
 208,     6.5814,     11.038,    6.697184e-02
 209,     6.5577,     15.000,    1.130829e-01
 210,     6.5422,     15.000,    1.086449e-01
 211,     6.5308,     15.000,    1.053595e-01
 212,     6.5183,     15.000,    1.559056e-01
 213,     6.4994,     15.000,    6.468104e-02
 214,     6.4921,     14.661,    1.116128e-01
 215,     6.4760,     15.000,    1.071225e-01
 216,     6.4629,     15.000,    1.122529e-01
 217,     6.4451,     15.000,    1.404062e-01
 218,     6.4229,     15.000,    1.203159e-01
 219,     6.4006,     15.000,    9.359963e-02
 220,     6.3898,     15.000,    1.375444e-01
 221,     6.3629,     15.000,    2.042442e-01
 222,     6.3404,     15.000,    9.205990e-02
 223,     6.3223,     15.000,    1.028441e-01
 224,     6.3088,     15.000,    1.115910e-01
 225,     6.2817,     15.000,    1.415140e-01
 226,     6.2621,     15.000,    1.131210e-01
 227,     6.2418,     15.000,    1.361564e-01
 228,     6.2280,     13.746,    6.738264e-02
 229,     6.2209,      5.105,    3.164330e-02
 230,     6.2073,     15.000,    7.052851e-02
 231,     6.1972,     15.000,    9.297885e-02
 232,     6.1866,     14.460,    9.281271e-02
 233,     6.1743,     15.000,    9.201591e-02
 234,     6.1610,     15.000,    9.151923e-02
 235,     6.1413,     15.000,    1.199379e-01
 236,     6.1253,     15.000,    8.126820e-02
 237,     6.1068,     15.000,    1.011233e-01
 238,     6.0904,      5.036,    1.692672e-02
 239,     6.0851,     13.032,    8.718935e-02
 240,     6.0752,     15.000,    4.805663e-02
 241,     6.0661,      5.282,    3.268624e-02
 242,     6.0593,      8.941,    5.792559e-02
 243,     6.0541,      5.821,    2.577183e-02
 244,     6.0496,     10.434,    9.914263e-02
 245,     6.0423,      7.854,    4.032134e-02
 246,     6.0317,      7.309,    2.952424e-02
 247,     6.0244,     15.000,    6.542923e-02
 248,     6.0158,     15.000,    5.909061e-02
 249,     6.0049,     15.000,    4.421407e-02
 250,     5.9924,     15.000,    9.975840e-02
 251,     5.9807,     15.000,    1.161538e-01
 252,     5.9684,     15.000,    8.822576e-02
 253,     5.9609,     15.000,    7.616587e-02
 254,     5.9505,      5.646,    3.185759e-02
 255,     5.9388,     11.044,    6.602097e-02
 256,     5.9340,      0.023,    7.810464e-03
 257,     5.9284,     10.243,    5.903793e-02
 258,     5.9244,      5.196,    3.259373e-02
 259,     5.9169,     15.000,    7.092965e-02
 260,     5.9050,     14.347,    7.725412e-02
 261,     5.8973,      8.438,    6.064358e-02
 262,     5.8895,      9.445,    5.067781e-02
 263,     5.8789,     15.000,    1.640685e-01
 264,     5.8599,     15.000,    1.155344e-01
 265,     5.8467,     15.000,    1.183485e-01
 266,     5.8286,     15.000,    1.154047e-01
 267,     5.8072,     15.000,    8.365385e-02
 268,     5.7918,     15.000,    8.569107e-02
 269,     5.7718,     15.000,    1.254411e-01
 270,     5.7614,     15.000,    1.316866e-01
 271,     5.7495,     15.000,    1.461063e-01
 272,     5.7334,     15.000,    1.419951e-01
 273,     5.7228,     15.000,    1.083344e-01
 274,     5.7114,     15.000,    1.075654e-01
 275,     5.6856,     15.000,    2.044294e-01
 276,     5.6697,     15.000,    1.232481e-01
 277,     5.6595,     15.000,    1.302159e-01
 278,     5.6492,     15.000,    1.437758e-01
 279,     5.6372,     15.000,    9.405269e-02
 280,     5.6227,     15.000,    1.230169e-01
 281,     5.6099,     15.000,    1.558277e-01
 282,     5.5968,     15.000,    1.352992e-01
 283,     5.5844,     15.000,    9.052346e-02
 284,     5.5691,     15.000,    1.122438e-01
 285,     5.5494,     15.000,    1.066169e-01
 286,     5.5405,     15.000,    1.376291e-01
 287,     5.5243,     15.000,    1.084038e-01
 288,     5.5118,     15.000,    7.025789e-02
 289,     5.4945,     15.000,    1.136575e-01
 290,     5.4862,     15.000,    8.934451e-02
 291,     5.4740,     15.000,    9.363491e-02
 292,     5.4658,     14.909,    9.205171e-02
 293,     5.4491,     13.293,    1.256982e-01
 294,     5.4414,     10.453,    7.778711e-02
 295,     5.4340,     14.920,    5.376547e-02
 296,     5.4266,      1.297,    8.136788e-03
 297,     5.4205,     12.104,    6.618066e-02
 298,     5.4098,     15.000,    8.402014e-02
 299,     5.3994,     15.000,    8.544923e-02
 300,     5.3916,     12.818,    8.450136e-02
 301,     5.3843,     15.000,    7.444935e-02
 302,     5.3701,     15.000,    6.988880e-02
 303,     5.3566,     15.000,    7.862810e-02
 304,     5.3439,     15.000,    9.707405e-02
 305,     5.3325,     15.000,    5.982918e-02
 306,     5.3250,      3.454,    2.249388e-02
 307,     5.3201,     15.000,    7.384013e-02
 308,     5.3099,     15.000,    5.749717e-02
 309,     5.3057,      5.166,    2.364178e-02
 310,     5.2942,     15.000,    1.553637e-01
 311,     5.2814,     15.000,    1.406698e-01
 312,     5.2706,     15.000,    1.004501e-01
 313,     5.2568,     15.000,    9.666286e-02
 314,     5.2466,     15.000,    9.741579e-02
 315,     5.2331,     15.000,    1.314512e-01
 316,     5.2228,     15.000,    9.754193e-02
 317,     5.2042,      9.345,    5.729092e-02
 318,     5.1980,     15.000,    9.775253e-02
 319,     5.1861,     15.000,    1.066144e-01
 320,     5.1778,     15.000,    6.983613e-02
 321,     5.1702,     15.000,    8.471522e-02
 322,     5.1583,      5.317,    1.992744e-02
 323,     5.1551,     11.395,    5.364462e-02
 324,     5.1433,      7.637,    3.413090e-02
 325,     5.1381,      5.829,    3.593301e-02
 326,     5.1316,     11.769,    5.263990e-02
 327,     5.1240,      6.982,    4.378405e-02
 328,     5.1194,     10.492,    4.326134e-02
 329,     5.1084,     15.000,    9.399601e-02
 330,     5.0994,     15.000,    1.122720e-01
 331,     5.0916,      3.980,    3.402286e-02
 332,     5.0836,     15.000,    1.024617e-01
 333,     5.0768,     15.000,    1.117089e-01
 334,     5.0687,     15.000,    1.046882e-01
 335,     5.0562,     10.763,    4.429846e-02
 336,     5.0492,     12.560,    8.364858e-02
 337,     5.0437,      9.276,    9.010223e-02
 338,     5.0375,     12.599,    6.475340e-02
 339,     5.0253,     15.000,    1.035760e-01
 340,     5.0124,     15.000,    8.928737e-02
 341,     5.0061,     11.130,    6.151385e-02
 342,     4.9929,     15.000,    1.582714e-01
 343,     4.9753,     15.000,    7.745958e-02
 344,     4.9661,     15.000,    5.521771e-02
 345,     4.9499,     15.000,    6.602390e-02
 346,     4.9385,     15.000,    6.032329e-02
 347,     4.9234,     15.000,    1.021257e-01
 348,     4.9157,     15.000,    5.177480e-02
 349,     4.9004,     15.000,    5.826300e-02
 350,     4.8900,     15.000,    8.615092e-02
 351,     4.8830,     15.000,    6.231762e-02
 352,     4.8704,     15.000,    1.272801e-01
 353,     4.8638,     14.966,    5.558564e-02
 354,     4.8524,     15.000,    8.110648e-02
 355,     4.8246,     15.000,    6.313028e-01
 356,     4.8148,     15.000,    6.621492e-01
 357,     4.8049,     15.000,    5.707723e-01
 358,     4.7955,     15.000,    6.225867e-01
 359,     4.7885,     15.000,    6.732074e-01
 360,     4.7781,      3.326,    1.316036e+00
 361,     4.7701,     15.000,    6.760699e-01
 362,     4.7625,     15.000,    6.300275e-01
 363,     4.7529,     15.000,    6.811000e-01
 364,     4.7416,     15.000,    7.183697e-01
 365,     4.7281,     10.615,    6.783462e-02
 366,     4.7210,     15.000,    6.024837e-02
 367,     4.7121,     15.000,    9.456270e-02
 368,     4.7031,     13.007,    5.377616e-02
 369,     4.6968,     15.000,    7.906096e-02
 370,     4.6817,     15.000,    1.083441e-01
 371,     4.6645,     15.000,    9.743783e-02
 372,     4.6512,     15.000,    8.209525e-02
 373,     4.6396,     15.000,    8.913771e-02
 374,     4.6318,     15.000,    1.391611e-01
 375,     4.6163,     15.000,    1.714610e-01
 376,     4.6000,     15.000,    4.898915e-02
 377,     4.5927,     15.000,    1.306679e-01
 378,     4.5812,     15.000,    5.627627e-02
 379,     4.5743,     15.000,    7.640354e-02
 380,     4.5621,     15.000,    1.253239e-01
 381,     4.5446,     11.716,    8.441568e-02
 382,     4.5391,      9.017,    7.149775e-02
 383,     4.5291,     13.430,    5.401833e-02
 384,     4.5252,     15.000,    1.104567e-01
 385,     4.5115,     15.000,    1.133081e-01
 386,     4.5007,     15.000,    6.029072e-02
 387,     4.4939,     15.000,    6.886474e-02
 388,     4.4802,     15.000,    1.265853e-01
 389,     4.4674,     15.000,    1.063559e-01
 390,     4.4592,      6.904,    2.742507e-02
 391,     4.4506,     15.000,    8.959526e-02
 392,     4.4394,     15.000,    8.100866e-02
 393,     4.4330,     10.177,    6.776080e-02
 394,     4.4231,     15.000,    6.806407e-02
 395,     4.4146,     15.000,    1.028426e-01
 396,     4.3824,     15.000,    1.332589e-01
 397,     4.3629,     15.000,    1.194304e-01
 398,     4.3486,     15.000,    1.241471e-01
 399,     4.3334,     15.000,    1.316705e-01
 400,     4.3218,     15.000,    1.155895e-01
 401,     4.3096,     15.000,    9.889434e-02
 402,     4.3033,      8.148,    1.811703e-02
 403,     4.2943,     15.000,    9.778447e-02
 404,     4.2842,     15.000,    5.242894e-02
 405,     4.2733,     15.000,    8.451892e-02
 406,     4.2627,     15.000,    6.709788e-02
 407,     4.2541,      6.838,    3.914840e-02
 408,     4.2493,     13.569,    7.839926e-02
 409,     4.2355,     11.997,    5.685395e-02
 410,     4.2281,     15.000,    7.473715e-02
 411,     4.2168,      5.720,    3.379215e-02
 412,     4.2109,     15.000,    8.012193e-02
 413,     4.2013,     15.000,    6.898864e-02
 414,     4.1932,     12.650,    7.337832e-02
 415,     4.1769,     15.000,    1.738008e-01
 416,     4.1649,     15.000,    2.349513e-01
 417,     4.1592,     15.000,    1.612718e-01
 418,     4.1456,     15.000,    8.725055e-02
 419,     4.1278,     15.000,    6.060853e-02
 420,     4.1102,     15.000,    1.489533e-01
 421,     4.1034,     15.000,    2.964528e-01
 422,     4.0961,     15.000,    7.179355e-02
 423,     4.0937,      9.856,    6.018326e-02
 424,     4.0821,     14.840,    7.541207e-02
 425,     4.0756,     13.060,    6.783257e-02
 426,     4.0629,     15.000,    8.209135e-02
 427,     4.0516,     15.000,    6.218925e-02
 428,     4.0407,     15.000,    1.356885e-01
 429,     4.0257,     15.000,    2.591576e-01
 430,     4.0200,     13.957,    2.656152e-01
 431,     4.0085,     13.616,    4.274466e-01
 432,     4.0006,      4.219,    3.575755e-02
 433,     3.9904,     15.000,    1.797243e-01
