index,   freq_ppm,   decay_hz, amplitude
   1,     8.9838,     15.000,    1.595495e-01
   2,     8.9581,     15.000,    1.826926e-01
   3,     8.9279,     15.000,    1.593233e-01
   4,     8.8967,     15.000,    1.536359e-01
   5,     8.8790,     15.000,    1.443260e-01
   6,     8.8533,     15.000,    1.177393e-01
   7,     8.8357,     15.000,    1.231931e-01
   8,     8.7982,     15.000,    1.251812e-01
   9,     8.7821,     15.000,    8.685080e-02
  10,     8.7745,     15.000,    8.423805e-02
  11,     8.7617,     12.058,    6.543788e-02
  12,     8.7516,     15.000,    7.964927e-02
  13,     8.7421,     15.000,    6.828522e-02
  14,     8.7293,     15.000,    7.910796e-02
  15,     8.7198,     14.496,    8.816578e-02
  16,     8.7104,     11.637,    3.308445e-02
  17,     8.7003,     15.000,    8.047684e-02
  18,     8.6827,     15.000,    8.044537e-02
  19,     8.6736,     15.000,    6.939765e-02
  20,     8.6591,     15.000,    1.046195e-01
  21,     8.6511,     15.000,    9.014604e-02
  22,     8.6365,     15.000,    9.042569e-02
  23,     8.6252,     15.000,    7.801380e-02
  24,     8.6134,      4.960,    2.370929e-02
  25,     8.6082,     14.736,    6.634517e-02
  26,     8.5966,     15.000,    1.492316e-01
  27,     8.5852,     15.000,    1.005880e-01
  28,     8.5745,     15.000,    6.034511e-02
  29,     8.5642,      7.481,    4.042322e-01
  30,     8.5555,     15.000,    1.132962e-01
  31,     8.5427,     15.000,    3.646153e-01
  32,     8.5304,     15.000,    3.599423e-01
  33,     8.5191,     15.000,    2.935571e-01
  34,     8.5105,     15.000,    2.705047e-01
  35,     8.5002,     15.000,    2.643712e-01
  36,     8.4911,     15.000,    2.271725e-01
  37,     8.4470,      3.219,    1.068514e+01
  38,     8.4458,      1.119,    1.273878e+01
  39,     8.4445,      1.749,    1.019229e+01
  40,     8.4429,      6.134,    5.347715e+00
  41,     8.4390,     15.000,    2.884346e+00
  42,     8.4303,     15.000,    1.415939e+00
  43,     8.4173,     15.000,    4.588141e-01
  44,     8.4092,     15.000,    2.586600e-01
  45,     8.4004,     15.000,    1.553875e-01
  46,     8.3925,     15.000,    9.302764e-02
  47,     8.3737,     15.000,    7.390991e-02
  48,     8.3679,     15.000,    1.479615e-01
  49,     8.3598,     15.000,    1.305547e-01
  50,     8.3472,     15.000,    2.836535e-01
  51,     8.3380,      7.280,    4.491938e-02
  52,     8.3280,      4.281,    1.445541e-02
  53,     8.3208,      8.015,    4.014070e-01
  54,     8.3093,     15.000,    7.578214e-02
  55,     8.3039,      8.213,    4.126234e-02
  56,     8.2913,     13.844,    8.961027e-02
  57,     8.2833,     15.000,    1.007854e-01
  58,     8.2725,     15.000,    9.018189e-02
  59,     8.2639,     15.000,    1.040396e-01
  60,     8.2547,     15.000,    9.416712e-02
  61,     8.2348,     15.000,    1.282609e-01
  62,     8.2173,     15.000,    2.273896e-01
  63,     8.2031,     15.000,    8.457401e-02
  64,     8.1929,     15.000,    1.449515e-01
  65,     8.1729,     15.000,    9.831946e-02
  66,     8.1478,     15.000,    9.200031e-02
  67,     8.1387,     15.000,    1.026291e-01
  68,     8.1304,     15.000,    1.170218e-01
  69,     8.1176,     15.000,    1.031790e-01
  70,     8.1002,     15.000,    1.481228e-01
  71,     8.0870,     15.000,    7.957919e-02
  72,     8.0676,     15.000,    1.338947e-01
  73,     8.0536,     15.000,    1.251835e-01
  74,     8.0386,     12.151,    5.376751e-02
  75,     8.0322,      8.782,    6.832880e-02
  76,     8.0231,     11.535,    7.746340e-02
  77,     8.0170,      4.923,    1.269420e-02
  78,     8.0101,      8.311,    5.970081e-02
  79,     8.0003,     10.703,    3.611226e-02
  80,     7.9900,     10.326,    6.980736e-01
  81,     7.9845,     15.000,    9.645070e-02
  82,     7.9711,     15.000,    7.226717e-02
  83,     7.9609,      9.339,    6.682347e-02
  84,     7.9498,     15.000,    1.371757e-01
  85,     7.9365,     15.000,    1.457920e-01
  86,     7.9144,     15.000,    8.471286e-02
  87,     7.8917,     15.000,    1.318361e-01
  88,     7.8725,     15.000,    1.334414e-01
  89,     7.8566,     15.000,    1.055202e-01
  90,     7.8392,     15.000,    1.082969e-01
  91,     7.8127,     15.000,    1.445397e-01
  92,     7.7963,     15.000,    1.091109e-01
  93,     7.7838,     15.000,    7.807406e-02
  94,     7.7745,     15.000,    1.047774e-01
  95,     7.7447,     15.000,    1.003131e-01
  96,     7.7281,     15.000,    9.542628e-02
  97,     7.7146,     15.000,    8.210800e-02
  98,     7.7043,     15.000,    1.309970e-01
  99,     7.6941,     15.000,    5.906035e-02
 100,     7.6769,     15.000,    1.220309e-01
 101,     7.6673,     15.000,    8.536322e-02
 102,     7.6611,      7.822,    3.744560e-02
 103,     7.6502,     15.000,    1.003740e-01
 104,     7.6337,     15.000,    7.585424e-02
 105,     7.6266,     15.000,    7.669603e-02
 106,     7.6193,     15.000,    9.021426e-02
 107,     7.6096,     10.154,    5.777143e-02
 108,     7.6036,     10.261,    5.061661e-02
 109,     7.5931,     15.000,    7.875463e-02
 110,     7.5842,     13.977,    4.427840e-02
 111,     7.5710,     12.429,    6.654344e-02
 112,     7.5523,     15.000,    1.397659e-01
 113,     7.5341,     15.000,    1.201555e-01
 114,     7.5152,     15.000,    9.800384e-02
 115,     7.4906,     15.000,    1.493184e-01
 116,     7.4734,     15.000,    1.222935e-01
 117,     7.4562,     15.000,    1.258446e-01
 118,     7.4253,     15.000,    1.445522e-01
 119,     7.4096,     15.000,    1.118883e-01
 120,     7.3921,     15.000,    1.147936e-01
 121,     7.3802,     15.000,    9.334605e-02
 122,     7.3678,     15.000,    1.029861e-01
 123,     7.3577,     15.000,    7.924942e-02
 124,     7.3461,     15.000,    1.169795e-01
 125,     7.3360,     15.000,    1.221550e-01
 126,     7.3223,     10.758,    5.534349e-02
 127,     7.3145,      6.722,    4.511206e-02
 128,     7.3071,     11.438,    8.716564e-02
 129,     7.3035,      0.461,    5.976085e-03
 130,     7.2909,     15.000,    1.333411e-01
 131,     7.2795,     15.000,    6.494253e-02
 132,     7.2710,     15.000,    8.386454e-02
 133,     7.2535,     14.942,    7.414843e-02
 134,     7.2397,     15.000,    9.975745e-02
 135,     7.2257,     15.000,    6.349787e-02
 136,     7.2166,     12.523,    3.795091e-02
 137,     7.2055,     15.000,    5.752802e-02
 138,     7.1895,     10.876,    6.668199e-01
 139,     7.1794,     11.552,    7.650035e-01
 140,     7.1632,     15.000,    1.240886e-01
 141,     7.1557,      6.506,    3.270613e-02
 142,     7.1451,     15.000,    5.339187e-02
 143,     7.1283,     15.000,    7.549646e-02
 144,     7.1118,     15.000,    1.020451e-01
 145,     7.0988,     15.000,    4.262589e-02
 146,     7.0893,     15.000,    6.237164e-02
 147,     7.0786,     14.626,    2.393955e-01
 148,     7.0635,     15.000,    1.019768e-01
 149,     7.0394,     15.000,    6.248213e-02
 150,     7.0276,     15.000,    1.261848e-01
 151,     7.0157,     15.000,    1.290004e-01
 152,     7.0012,     15.000,    5.819459e-02
 153,     6.9947,     15.000,    8.317090e-02
 154,     6.9816,     15.000,    8.460100e-02
 155,     6.9687,     15.000,    6.147956e-02
 156,     6.9520,     15.000,    7.702056e-02
 157,     6.9417,     11.477,    7.811622e-02
 158,     6.9319,     10.591,    3.944152e-02
 159,     6.9250,      4.528,    1.886259e-02
 160,     6.9209,      2.562,    1.813174e-02
 161,     6.9088,     15.000,    8.137794e-02
 162,     6.8972,      7.562,    3.531730e-01
 163,     6.8953,     12.186,    2.539205e-01
 164,     6.8867,      9.923,    5.745354e-01
 165,     6.8780,     15.000,    9.477506e-02
 166,     6.8677,     12.248,    7.442653e-02
 167,     6.8585,     10.757,    5.399319e-02
 168,     6.8524,     15.000,    1.039950e-01
 169,     6.8475,      2.026,    1.040565e-02
 170,     6.8425,      3.895,    2.661920e-02
 171,     6.8356,      5.507,    2.242367e-02
 172,     6.8291,      8.983,    5.959323e-02
 173,     6.8255,      8.052,    5.182057e-02
 174,     6.8191,      5.398,    2.079733e-02
 175,     6.8149,      3.897,    2.500982e-02
 176,     6.8070,      5.444,    3.849785e-02
 177,     6.7959,     15.000,    1.681121e-01
 178,     6.7811,     15.000,    1.210387e-01
 179,     6.7688,     15.000,    1.137281e-01
 180,     6.7441,     15.000,    1.128281e-01
 181,     6.7347,     15.000,    8.901597e-02
 182,     6.7173,     15.000,    1.651200e-01
 183,     6.6888,     15.000,    9.808673e-02
 184,     6.6789,     15.000,    9.740949e-02
 185,     6.6603,     15.000,    1.424095e-01
 186,     6.6472,     15.000,    6.480573e-02
 187,     6.6328,      6.061,    3.583897e-02
 188,     6.6245,     13.508,    8.230733e-02
 189,     6.6163,     15.000,    6.619962e-02
 190,     6.6070,     15.000,    7.377448e-02
 191,     6.5972,     13.083,    5.190125e-02
 192,     6.5864,     15.000,    1.368819e-01
 193,     6.5700,     15.000,    1.272332e-01
 194,     6.5525,     15.000,    8.566608e-02
 195,     6.5353,     15.000,    9.593482e-02
 196,     6.5231,     15.000,    8.687756e-02
 197,     6.5157,     15.000,    6.037353e-02
 198,     6.5045,      9.344,    4.593083e-02
 199,     6.4961,     15.000,    2.828802e-02
 200,     6.4891,      1.594,    1.064208e-02
 201,     6.4809,     13.211,    7.319068e-02
 202,     6.4749,      7.987,    2.491847e-02
 203,     6.4685,      8.801,    2.602666e-02
 204,     6.4616,     14.360,    6.828471e-02
 205,     6.4498,     11.099,    3.950742e-02
 206,     6.4438,     15.000,    6.902508e-02
 207,     6.4314,     11.392,    8.163533e-02
 208,     6.4260,     13.097,    3.856802e-02
 209,     6.4175,     10.059,    5.865491e-02
 210,     6.4094,      7.317,    4.059601e-02
 211,     6.3998,     15.000,    1.322250e-01
 212,     6.3768,      9.765,    6.735523e-02
 213,     6.3634,     15.000,    1.951245e-01
 214,     6.3506,     15.000,    1.169785e-01
 215,     6.3363,     15.000,    9.448534e-02
 216,     6.3287,     13.239,    4.168397e-02
 217,     6.3206,     15.000,    2.794771e-02
 218,     6.3103,     15.000,    8.884846e-02
 219,     6.3038,     11.188,    4.217988e-02
 220,     6.2937,     15.000,    7.328486e-02
 221,     6.2806,     15.000,    1.035945e-01
 222,     6.2690,     15.000,    6.476832e-02
 223,     6.2591,     15.000,    8.505952e-02
 224,     6.2471,     15.000,    9.951232e-02
 225,     6.2319,     15.000,    1.034875e-01
 226,     6.2175,     15.000,    1.130939e-01
 227,     6.1945,     15.000,    1.467420e-01
 228,     6.1748,     15.000,    1.019571e-01
 229,     6.1644,     15.000,    9.428176e-02
 230,     6.1511,     15.000,    1.005669e-01
 231,     6.1357,     15.000,    9.882643e-02
 232,     6.1229,     15.000,    1.125323e-01
 233,     6.1031,     15.000,    7.429793e-02
 234,     6.0905,     15.000,    1.569590e-01
 235,     6.0821,     15.000,    1.289907e-01
 236,     6.0589,     15.000,    1.169362e-01
 237,     6.0413,     15.000,    1.083297e-01
 238,     6.0234,     15.000,    1.088751e-01
 239,     6.0089,     15.000,    7.766942e-02
 240,     5.9876,     15.000,    7.418506e-02
 241,     5.9732,      8.144,    5.215856e-02
 242,     5.9648,     15.000,    7.846026e-02
 243,     5.9579,     15.000,    6.430566e-02
 244,     5.9397,     15.000,    7.486425e-02
 245,     5.9312,     14.127,    8.356188e-02
 246,     5.9179,     10.890,    2.670671e-02
 247,     5.9085,      6.592,    1.743883e-01
 248,     5.9070,      8.193,    2.065887e-01
 249,     5.9006,     10.810,    4.347223e-01
 250,     5.8872,      9.418,    8.649538e-02
 251,     5.8735,     15.000,    9.340255e-02
 252,     5.8629,     15.000,    1.018109e-01
 253,     5.8534,     15.000,    9.228469e-02
 254,     5.8411,     15.000,    8.584575e-02
 255,     5.8320,     15.000,    7.442220e-02
 256,     5.8223,     15.000,    9.665637e-02
 257,     5.8104,      7.559,    4.275089e-02
 258,     5.8025,     15.000,    8.767462e-02
 259,     5.7955,     12.068,    7.228112e-02
 260,     5.7826,     15.000,    9.640159e-02
 261,     5.7715,     15.000,    8.662172e-02
 262,     5.7651,     15.000,    9.792666e-02
 263,     5.7521,     15.000,    5.044128e-02
 264,     5.7407,     15.000,    8.959594e-02
 265,     5.7299,     15.000,    7.715708e-02
 266,     5.7174,     15.000,    9.074768e-02
 267,     5.7027,     15.000,    9.219218e-02
 268,     5.6872,     15.000,    9.080324e-02
 269,     5.6712,     15.000,    1.064311e-01
 270,     5.6606,     15.000,    9.686680e-02
 271,     5.6486,     15.000,    1.037545e-01
 272,     5.6357,     14.768,    4.837017e-02
 273,     5.6277,     14.913,    1.057022e-01
 274,     5.6085,     15.000,    1.032163e-01
 275,     5.5980,     15.000,    9.975550e-02
 276,     5.5852,     15.000,    6.685755e-02
 277,     5.5717,     15.000,    5.257993e-02
 278,     5.5650,     15.000,    9.243014e-02
 279,     5.5537,     15.000,    7.474878e-02
 280,     5.5378,     15.000,    1.415242e-01
 281,     5.5190,     15.000,    9.765498e-02
 282,     5.5088,     15.000,    1.166644e-01
 283,     5.4811,     15.000,    8.925305e-02
 284,     5.4722,     15.000,    8.434464e-02
 285,     5.4562,     13.629,    8.631599e-02
 286,     5.4398,     15.000,    9.691116e-02
 287,     5.4327,      4.677,    2.085314e-02
 288,     5.4272,     15.000,    8.036598e-02
 289,     5.4164,     13.006,    4.831595e-02
 290,     5.4156,      1.759,    5.488781e-03
 291,     5.4105,      5.522,    3.401608e-02
 292,     5.4035,      8.620,    4.068458e-02
 293,     5.3984,     11.806,    4.377031e-02
 294,     5.3851,     11.144,    6.994439e-02
 295,     5.3753,      9.279,    7.568546e-02
 296,     5.3714,      9.602,    4.362890e-02
 297,     5.3648,      9.142,    5.210599e-02
 298,     5.3570,      8.710,    2.840177e-02
 299,     5.3498,      9.648,    7.919366e-02
 300,     5.3442,      7.794,    4.684534e-02
 301,     5.3368,     15.000,    9.559102e-02
 302,     5.3195,     14.876,    8.436420e-02
 303,     5.3068,     15.000,    5.338676e-02
 304,     5.3003,     15.000,    8.625408e-02
 305,     5.2848,     15.000,    8.332249e-02
 306,     5.2689,      5.020,    2.267048e-02
 307,     5.2612,     14.069,    1.066064e-01
 308,     5.2495,     15.000,    7.507561e-02
 309,     5.2379,     15.000,    5.889297e-02
 310,     5.2276,     15.000,    1.089944e-01
 311,     5.2186,     13.480,    7.753631e-02
 312,     5.2101,     10.272,    7.143161e-02
 313,     5.2041,      7.803,    4.231950e-02
 314,     5.1957,     13.804,    1.277344e-01
 315,     5.1821,      8.199,    4.995003e-02
 316,     5.1701,     15.000,    7.725247e-02
 317,     5.1609,     15.000,    1.067961e-01
 318,     5.1455,     15.000,    9.692955e-02
 319,     5.1323,     15.000,    6.653867e-02
 320,     5.1232,     15.000,    9.467951e-02
 321,     5.1144,      6.318,    3.316725e-02
 322,     5.1104,     15.000,    8.565492e-02
 323,     5.0998,     15.000,    9.603738e-02
 324,     5.0947,      5.804,    2.325966e-02
 325,     5.0862,      9.653,    5.846509e-02
 326,     5.0754,     15.000,    1.044104e-01
 327,     5.0655,     15.000,    9.829947e-02
 328,     5.0557,     11.624,    7.462390e-02
 329,     5.0508,     11.130,    2.874905e-02
 330,     5.0415,     15.000,    1.089307e-01
 331,     5.0305,     15.000,    5.448908e-02
 332,     5.0157,     15.000,    1.221524e-01
 333,     5.0009,     15.000,    9.226996e-02
 334,     4.9897,     15.000,    9.977649e-02
 335,     4.9731,     15.000,    1.237591e-01
 336,     4.9630,     15.000,    1.168972e-01
 337,     4.9562,      3.019,    1.417223e-02
 338,     4.9474,     13.202,    7.710105e-02
 339,     4.9373,     15.000,    7.073070e-02
 340,     4.9309,     15.000,    8.559100e-02
 341,     4.9193,     15.000,    1.248737e-01
 342,     4.9080,     15.000,    1.158233e-01
 343,     4.8934,     14.945,    1.383210e-01
 344,     4.8787,     15.000,    1.401472e-01
 345,     4.8701,     15.000,    1.477549e-01
 346,     4.8571,     15.000,    1.360706e-01
 347,     4.8427,     15.000,    1.162704e-01
 348,     4.8323,     15.000,    1.470125e-01
 349,     4.8176,     15.000,    7.939749e+00
 350,     4.8091,     15.000,    7.913227e+00
 351,     4.8005,     15.000,    7.893967e+00
 352,     4.7921,     15.000,    7.983483e+00
 353,     4.7839,     15.000,    8.355348e+00
 354,     4.7665,     15.000,    1.142840e+01
 355,     4.7511,     15.000,    1.150918e+01
 356,     4.7349,     15.000,    1.171867e+01
 357,     4.7184,     15.000,    1.158798e+01
 358,     4.7034,     15.000,    1.122079e+01
 359,     4.6896,     15.000,    1.142425e+01
 360,     4.6857,     14.404,    2.920320e-02
 361,     4.6757,     15.000,    8.940905e-02
 362,     4.6687,     15.000,    5.831506e-02
 363,     4.6532,     14.596,    7.257852e-02
 364,     4.6401,     15.000,    1.125166e-01
 365,     4.6315,     12.796,    1.250007e-01
 366,     4.6267,      4.155,    2.166362e-02
 367,     4.6177,      8.675,    3.115792e-02
 368,     4.6100,     15.000,    6.690969e-02
 369,     4.6018,     15.000,    8.960278e-02
 370,     4.5928,      5.870,    3.408732e-02
 371,     4.5881,      4.864,    2.808428e-02
 372,     4.5762,     15.000,    7.876123e-02
 373,     4.5693,     15.000,    6.346535e-02
 374,     4.5602,      5.982,    2.907279e-02
 375,     4.5531,      8.468,    4.310479e-02
 376,     4.5482,      8.821,    5.816936e-02
 377,     4.5395,     13.301,    1.207443e-01
 378,     4.5331,      9.931,    5.025877e-02
 379,     4.5273,      7.552,    6.046299e-02
 380,     4.5213,      9.997,    5.320491e-02
 381,     4.5108,     10.264,    8.640160e-02
 382,     4.5042,      4.757,    3.285658e-02
 383,     4.4959,     15.000,    1.502381e-01
 384,     4.4774,     15.000,    1.530885e-01
 385,     4.4615,     15.000,    1.616547e-01
 386,     4.4417,     15.000,    2.435483e-01
 387,     4.4297,     15.000,    1.613211e-01
 388,     4.4121,      6.791,    2.418602e-02
 389,     4.4054,     10.772,    2.307505e-01
 390,     4.4005,      8.349,    1.750087e-01
 391,     4.3986,      9.843,    2.119406e-01
 392,     4.3944,     12.620,    2.262864e-01
 393,     4.3899,     15.000,    5.288703e-02
 394,     4.3789,     14.801,    5.908013e-02
 395,     4.3685,      7.733,    3.650806e-02
 396,     4.3558,     14.738,    9.279397e-02
 397,     4.3494,     15.000,    1.168012e-01
 398,     4.3414,     15.000,    1.393894e-01
 399,     4.3325,     13.515,    1.020222e-01
 400,     4.3248,     12.030,    6.665790e-02
 401,     4.3171,     15.000,    1.045939e-01
 402,     4.3029,     15.000,    8.278251e-02
 403,     4.2858,     15.000,    5.662069e-02
 404,     4.2797,      9.665,    4.969089e-02
 405,     4.2692,     15.000,    1.093021e-01
 406,     4.2507,     14.689,    5.637905e-01
 407,     4.2440,     11.355,    6.122231e-01
 408,     4.2417,     10.149,    3.562415e-01
 409,     4.2369,      7.284,    1.597656e-01
 410,     4.2340,     11.210,    4.116761e-01
 411,     4.2276,     10.867,    4.958917e-01
 412,     4.2230,     11.566,    3.693518e-01
 413,     4.2185,      9.897,    1.225244e-01
 414,     4.1824,     15.000,    6.597707e-02
 415,     4.1672,     15.000,    1.386283e-01
 416,     4.1610,     15.000,    1.345370e-01
 417,     4.1557,     10.646,    5.470322e-02
 418,     4.1480,     15.000,    6.584942e-02
 419,     4.1372,     15.000,    1.069480e-01
 420,     4.1297,      4.333,    2.526242e-02
 421,     4.1074,     11.660,    3.180976e-01
 422,     4.1027,     11.786,    4.973344e-01
 423,     4.0955,     12.216,    6.697326e-02
 424,     4.0805,      7.876,    3.727615e-02
 425,     4.0704,     15.000,    7.041039e-02
 426,     4.0564,     15.000,    7.685629e-02
 427,     4.0471,     15.000,    1.105226e-01
 428,     4.0250,     11.158,    7.033232e-01
 429,     4.0092,     11.263,    8.208865e-01
 430,     3.9993,     14.246,    9.045867e-02
 431,     3.9910,      8.594,    2.240232e-01
 432,     3.9884,     11.141,    4.782079e-01
 433,     3.9848,     13.301,    6.281001e-01
