index,   freq_ppm,   decay_hz, amplitude
   1,     8.9401,     15.000,    7.988277e-02
   2,     8.9322,      7.361,    5.838450e-02
   3,     8.9235,     15.000,    7.814302e-02
   4,     8.9150,     15.000,    6.856533e-02
   5,     8.9081,     11.487,    5.655676e-02
   6,     8.8972,     15.000,    6.349922e-02
   7,     8.8807,     15.000,    1.326944e-01
   8,     8.8632,     15.000,    1.109747e-01
   9,     8.8446,     15.000,    1.279504e-01
  10,     8.8231,     15.000,    9.599862e-02
  11,     8.8126,     15.000,    9.679189e-02
  12,     8.8045,     10.860,    4.342727e-02
  13,     8.7990,     14.051,    1.090212e-01
  14,     8.7924,     15.000,    1.197079e-01
  15,     8.7846,      4.424,    2.783391e-02
  16,     8.7771,     11.757,    7.243351e-02
  17,     8.7703,     15.000,    9.616143e-02
  18,     8.7588,     15.000,    1.389521e-01
  19,     8.7469,     15.000,    1.364902e-01
  20,     8.7314,     15.000,    9.122487e-02
  21,     8.7243,     15.000,    9.962040e-02
  22,     8.7131,     15.000,    1.292713e-01
  23,     8.7028,     15.000,    9.457117e-02
  24,     8.6872,     15.000,    9.963761e-02
  25,     8.6777,     15.000,    1.515999e-01
  26,     8.6566,     15.000,    1.885583e-01
  27,     8.6312,     15.000,    1.575798e-01
  28,     8.6024,     15.000,    1.765250e-01
  29,     8.5823,     15.000,    1.546116e-01
  30,     8.5638,     14.917,    3.080949e-01
  31,     8.5395,     15.000,    1.371909e-01
  32,     8.5267,     15.000,    1.538968e-01
  33,     8.5102,     15.000,    1.152243e-01
  34,     8.5045,     15.000,    1.648421e-01
  35,     8.4980,     15.000,    1.623586e-01
  36,     8.4896,     15.000,    1.601092e-01
  37,     8.4818,     15.000,    1.622625e-01
  38,     8.4467,      3.165,    4.863057e+00
  39,     8.4455,      1.689,    5.474698e+00
  40,     8.4441,      3.754,    5.443451e+00
  41,     8.4421,     10.948,    2.499327e+00
  42,     8.4347,     15.000,    8.201765e-01
  43,     8.4253,     15.000,    6.401850e-01
  44,     8.4133,     15.000,    2.547515e-01
  45,     8.4038,     15.000,    2.172574e-01
  46,     8.3925,     15.000,    9.322554e-02
  47,     8.3828,     15.000,    9.922911e-02
  48,     8.3640,     15.000,    1.084931e-01
  49,     8.3528,     15.000,    1.042417e-01
  50,     8.3434,     15.000,    2.130129e-01
  51,     8.3206,     15.000,    3.754746e-01
  52,     8.3076,     15.000,    1.391593e-01
  53,     8.2874,     15.000,    1.913509e-01
  54,     8.2636,     15.000,    1.470881e-01
  55,     8.2481,     15.000,    1.322821e-01
  56,     8.2250,     15.000,    1.017535e-01
  57,     8.2063,     15.000,    7.955427e-02
  58,     8.1977,     15.000,    1.094603e-01
  59,     8.1833,     15.000,    8.138134e-02
  60,     8.1775,     15.000,    1.151174e-01
  61,     8.1680,     13.756,    7.230770e-02
  62,     8.1593,      6.689,    3.392261e-02
  63,     8.1529,     13.459,    8.890203e-02
  64,     8.1412,     12.866,    4.974349e-02
  65,     8.1339,     15.000,    6.552675e-02
  66,     8.1265,      8.097,    4.716247e-02
  67,     8.1133,     15.000,    6.751197e-02
  68,     8.1043,     15.000,    7.613152e-02
  69,     8.0865,     12.529,    4.961200e-02
  70,     8.0790,     15.000,    7.685182e-02
  71,     8.0646,     15.000,    7.109992e-02
  72,     8.0502,     15.000,    1.249466e-01
  73,     8.0372,     15.000,    1.126949e-01
  74,     8.0176,     15.000,    9.600254e-02
  75,     8.0016,     15.000,    9.505716e-02
  76,     7.9824,     15.000,    1.318855e-01
  77,     7.9562,     15.000,    1.609446e-01
  78,     7.9431,     15.000,    9.960123e-02
  79,     7.9305,     15.000,    6.459224e-02
  80,     7.9150,     15.000,    8.355308e-02
  81,     7.8949,     15.000,    8.607306e-02
  82,     7.8781,     15.000,    1.170430e-01
  83,     7.8619,     15.000,    8.887888e-02
  84,     7.8466,     15.000,    7.576442e-02
  85,     7.8382,     15.000,    1.045184e-01
  86,     7.8204,     15.000,    8.838659e-02
  87,     7.8073,     15.000,    5.976689e-02
  88,     7.7930,     15.000,    6.658144e-02
  89,     7.7801,      7.028,    2.650921e-02
  90,     7.7748,     15.000,    7.675193e-02
  91,     7.7686,      7.904,    3.839491e-02
  92,     7.7592,     15.000,    7.504335e-02
  93,     7.7500,     15.000,    9.089711e-02
  94,     7.7397,     15.000,    7.846486e-02
  95,     7.7302,     10.748,    4.572517e-02
  96,     7.7214,     15.000,    1.134050e-01
  97,     7.7056,     15.000,    1.056663e-01
  98,     7.6919,      9.195,    3.546592e-02
  99,     7.6850,     15.000,    1.625901e-01
 100,     7.6741,     15.000,    1.318882e-01
 101,     7.6599,     15.000,    8.088613e-02
 102,     7.6482,     15.000,    1.016284e-01
 103,     7.6375,     15.000,    1.097714e-01
 104,     7.6275,     15.000,    1.084759e-01
 105,     7.6112,     15.000,    9.638772e-02
 106,     7.6004,     15.000,    1.068296e-01
 107,     7.5809,     15.000,    1.618851e-01
 108,     7.5714,     15.000,    1.066800e-01
 109,     7.5611,     15.000,    1.202038e-01
 110,     7.5472,     15.000,    1.408390e-01
 111,     7.5336,     15.000,    1.480809e-01
 112,     7.5193,     15.000,    1.462930e-01
 113,     7.5066,     15.000,    1.306084e-01
 114,     7.4924,     15.000,    9.276555e-02
 115,     7.4821,     15.000,    1.176793e-01
 116,     7.4730,     15.000,    8.590087e-02
 117,     7.4634,     15.000,    1.315909e-01
 118,     7.4523,     14.942,    8.715812e-02
 119,     7.4451,      8.436,    5.591033e-02
 120,     7.4361,     13.814,    6.013683e-02
 121,     7.4263,     15.000,    8.415343e-02
 122,     7.4158,     15.000,    1.121731e-01
 123,     7.4061,     15.000,    9.624819e-02
 124,     7.3943,     15.000,    1.056555e-01
 125,     7.3803,     15.000,    9.393865e-02
 126,     7.3645,     15.000,    8.069658e-02
 127,     7.3543,     15.000,    9.270961e-02
 128,     7.3462,     15.000,    1.119982e-01
 129,     7.3331,      7.242,    6.390726e-02
 130,     7.3264,     15.000,    9.504973e-02
 131,     7.3104,      6.533,    3.782875e-02
 132,     7.3022,      9.877,    5.387456e-02
 133,     7.2963,      9.756,    6.012886e-02
 134,     7.2906,     13.344,    7.976968e-02
 135,     7.2808,      7.302,    4.109484e-02
 136,     7.2733,     15.000,    7.256245e-02
 137,     7.2560,     15.000,    7.843745e-02
 138,     7.2429,     15.000,    7.582195e-02
 139,     7.2245,     15.000,    9.025409e-02
 140,     7.2109,     15.000,    7.762975e-02
 141,     7.1989,     14.454,    7.671364e-02
 142,     7.1898,      8.380,    7.073148e-02
 143,     7.1825,     15.000,    6.848788e-02
 144,     7.1770,      8.344,    4.894150e-02
 145,     7.1711,      6.025,    3.601117e-02
 146,     7.1643,     15.000,    8.351190e-02
 147,     7.1561,      6.359,    3.631275e-02
 148,     7.1440,     10.689,    4.884557e-02
 149,     7.1348,     15.000,    6.708302e-02
 150,     7.1254,     11.761,    6.854688e-02
 151,     7.1108,     15.000,    1.415490e-01
 152,     7.0933,     15.000,    1.075127e-01
 153,     7.0793,     15.000,    2.354573e-01
 154,     7.0702,     15.000,    8.101899e-02
 155,     7.0591,     15.000,    7.276099e-02
 156,     7.0479,     14.128,    9.547330e-02
 157,     7.0374,     14.330,    1.246256e-01
 158,     7.0197,     13.559,    1.168972e-01
 159,     7.0135,      9.891,    5.711651e-02
 160,     7.0054,     13.634,    7.479031e-02
 161,     6.9966,     14.074,    1.207848e-01
 162,     6.9863,     11.207,    3.082402e-02
 163,     6.9800,      7.963,    4.145555e-02
 164,     6.9680,     14.303,    7.792661e-02
 165,     6.9619,     15.000,    5.790650e-02
 166,     6.9494,     15.000,    1.052826e-01
 167,     6.9400,      7.631,    3.794361e-02
 168,     6.9319,     14.942,    6.427269e-02
 169,     6.9207,     15.000,    9.047398e-02
 170,     6.9121,     13.996,    9.045243e-02
 171,     6.9053,     11.827,    4.305645e-02
 172,     6.8966,      5.781,    5.920957e-02
 173,     6.8862,     15.000,    1.306502e-01
 174,     6.8757,     15.000,    7.502018e-02
 175,     6.8689,     15.000,    6.733337e-02
 176,     6.8559,     15.000,    9.685584e-02
 177,     6.8342,     15.000,    9.647957e-02
 178,     6.8230,     15.000,    1.115533e-01
 179,     6.8037,     15.000,    1.000520e-01
 180,     6.7870,     15.000,    1.014377e-01
 181,     6.7727,     15.000,    9.305813e-02
 182,     6.7604,     15.000,    1.077248e-01
 183,     6.7392,     11.720,    8.330572e-02
 184,     6.7264,      9.309,    3.905139e-02
 185,     6.7156,     15.000,    1.223411e-01
 186,     6.7009,     15.000,    7.616105e-02
 187,     6.6930,     14.896,    6.460878e-02
 188,     6.6826,     15.000,    5.823677e-02
 189,     6.6696,     15.000,    8.773017e-02
 190,     6.6553,     15.000,    1.108946e-01
 191,     6.6394,     15.000,    8.289540e-02
 192,     6.6235,     14.896,    7.530883e-02
 193,     6.6174,      5.814,    3.248537e-02
 194,     6.6006,     15.000,    1.421953e-01
 195,     6.5896,     15.000,    1.241174e-01
 196,     6.5734,     15.000,    8.540410e-02
 197,     6.5614,     15.000,    8.653129e-02
 198,     6.5468,     15.000,    1.046913e-01
 199,     6.5341,     15.000,    9.699508e-02
 200,     6.5227,     12.122,    7.007733e-02
 201,     6.5176,      0.936,    9.389706e-03
 202,     6.5099,      5.306,    2.703618e-02
 203,     6.5056,     12.374,    6.824686e-02
 204,     6.4959,     15.000,    7.217727e-02
 205,     6.4851,     15.000,    1.053367e-01
 206,     6.4765,     11.236,    7.357530e-02
 207,     6.4659,     12.606,    5.918683e-02
 208,     6.4571,     15.000,    1.023003e-01
 209,     6.4376,     15.000,    1.081224e-01
 210,     6.4155,     15.000,    9.198327e-02
 211,     6.4084,     14.228,    4.095296e-02
 212,     6.3963,      9.483,    7.182214e-02
 213,     6.3861,     15.000,    7.810238e-02
 214,     6.3634,     13.772,    2.029839e-01
 215,     6.3513,     15.000,    1.490285e-01
 216,     6.3427,      5.225,    1.758462e-02
 217,     6.3371,     15.000,    6.925951e-02
 218,     6.3261,     15.000,    1.100095e-01
 219,     6.3125,     15.000,    9.073895e-02
 220,     6.2951,     15.000,    1.072594e-01
 221,     6.2814,     15.000,    1.154584e-01
 222,     6.2745,     15.000,    8.463988e-02
 223,     6.2663,     15.000,    5.514548e-02
 224,     6.2584,     15.000,    8.455236e-02
 225,     6.2383,     15.000,    1.021477e-01
 226,     6.2185,     15.000,    1.073031e-01
 227,     6.1943,     15.000,    1.167825e-01
 228,     6.1813,     15.000,    9.403060e-02
 229,     6.1680,     15.000,    1.061480e-01
 230,     6.1538,     15.000,    1.228595e-01
 231,     6.1237,     15.000,    1.218640e-01
 232,     6.1051,     15.000,    9.999306e-02
 233,     6.0902,     15.000,    7.607854e-02
 234,     6.0783,     15.000,    8.381816e-02
 235,     6.0581,     15.000,    5.572924e-02
 236,     6.0461,     15.000,    6.193133e-02
 237,     6.0348,     14.939,    7.526658e-02
 238,     6.0132,     15.000,    7.833914e-02
 239,     6.0029,     15.000,    5.495586e-02
 240,     5.9916,      6.437,    3.388111e-02
 241,     5.9827,     15.000,    3.278983e-02
 242,     5.9741,     15.000,    4.617613e-02
 243,     5.9655,     13.989,    4.509402e-02
 244,     5.9570,      6.835,    3.522200e-02
 245,     5.9528,     13.064,    5.787779e-02
 246,     5.9433,     12.142,    7.630213e-02
 247,     5.9379,     13.087,    6.442596e-02
 248,     5.9163,     15.000,    6.953451e-02
 249,     5.9055,     15.000,    9.322578e-02
 250,     5.8873,     15.000,    1.053681e-01
 251,     5.8677,     15.000,    7.640769e-02
 252,     5.8586,     15.000,    6.761471e-02
 253,     5.8481,     15.000,    5.094153e-02
 254,     5.8354,     15.000,    1.030528e-01
 255,     5.8266,     15.000,    1.431179e-01
 256,     5.8118,     15.000,    1.031308e-01
 257,     5.7971,     15.000,    9.400761e-02
 258,     5.7894,     15.000,    8.541263e-02
 259,     5.7767,     15.000,    1.049043e-01
 260,     5.7565,     15.000,    5.283155e-02
 261,     5.7453,      9.370,    4.775200e-02
 262,     5.7364,     15.000,    7.254783e-02
 263,     5.7173,     15.000,    1.116445e-01
 264,     5.7024,     15.000,    1.212543e-01
 265,     5.6868,     15.000,    1.772922e-01
 266,     5.6408,     15.000,    1.613532e-01
 267,     5.6157,     15.000,    9.783641e-02
 268,     5.6013,     15.000,    1.125149e-01
 269,     5.5884,     15.000,    1.142983e-01
 270,     5.5518,     15.000,    1.411943e-01
 271,     5.5373,      4.096,    2.126476e-02
 272,     5.5303,      7.572,    4.824544e-02
 273,     5.5266,      0.278,    3.870427e-03
 274,     5.5236,      7.885,    5.262173e-02
 275,     5.5133,     15.000,    1.306101e-01
 276,     5.4999,     15.000,    1.323490e-01
 277,     5.4871,     15.000,    9.274144e-02
 278,     5.4769,     15.000,    1.125200e-01
 279,     5.4576,     15.000,    1.330481e-01
 280,     5.4331,     15.000,    1.209265e-01
 281,     5.4224,      8.314,    6.913197e-02
 282,     5.4111,     15.000,    6.799536e-02
 283,     5.4028,     15.000,    8.698439e-02
 284,     5.3924,     15.000,    6.381691e-02
 285,     5.3790,     15.000,    1.029843e-01
 286,     5.3620,     15.000,    8.009629e-02
 287,     5.3472,     15.000,    9.462030e-02
 288,     5.3218,     15.000,    1.066686e-01
 289,     5.3029,     15.000,    1.139429e-01
 290,     5.2784,     15.000,    1.169188e-01
 291,     5.2547,     15.000,    1.033108e-01
 292,     5.2425,     15.000,    5.903538e-02
 293,     5.2358,     15.000,    8.750264e-02
 294,     5.2264,      7.102,    8.704901e-02
 295,     5.2219,      8.047,    7.567708e-02
 296,     5.2172,      7.772,    3.158543e-02
 297,     5.2046,     15.000,    8.702035e-02
 298,     5.1970,      6.208,    4.638647e-02
 299,     5.1928,     14.130,    1.654979e-01
 300,     5.1857,      5.483,    1.123440e-02
 301,     5.1750,     14.878,    7.527947e-02
 302,     5.1637,     15.000,    1.016209e-01
 303,     5.1493,     15.000,    1.068776e-01
 304,     5.1333,     15.000,    1.432789e-01
 305,     5.1086,     15.000,    1.007265e-01
 306,     5.0983,     15.000,    6.700228e-02
 307,     5.0878,      9.757,    8.063327e-02
 308,     5.0784,     15.000,    7.295683e-02
 309,     5.0633,     15.000,    7.069822e-02
 310,     5.0549,      6.422,    3.737724e-02
 311,     5.0446,     15.000,    7.404661e-02
 312,     5.0370,      7.539,    4.546456e-02
 313,     5.0290,     15.000,    9.980118e-02
 314,     5.0207,     10.104,    4.503307e-02
 315,     5.0086,     14.639,    1.197491e-01
 316,     4.9928,     15.000,    7.710154e-02
 317,     4.9812,     15.000,    1.092873e-01
 318,     4.9736,     15.000,    7.409541e-02
 319,     4.9674,      4.564,    2.332447e-02
 320,     4.9593,     14.943,    7.413635e-02
 321,     4.9460,     15.000,    7.549199e-02
 322,     4.9365,     15.000,    7.639159e-02
 323,     4.9261,     15.000,    9.901755e-02
 324,     4.9153,     15.000,    3.035638e-01
 325,     4.9043,     15.000,    1.276197e-01
 326,     4.8955,     15.000,    8.589403e-02
 327,     4.8904,      5.513,    2.435280e-02
 328,     4.8821,      5.503,    3.909555e-02
 329,     4.8790,     13.037,    5.387688e-02
 330,     4.8715,      7.014,    5.797836e-02
 331,     4.8613,     15.000,    3.983025e-01
 332,     4.8479,     15.000,    4.424963e-01
 333,     4.8354,     15.000,    4.137696e-01
 334,     4.8193,     15.000,    4.686293e-01
 335,     4.8058,     15.000,    3.882188e-01
 336,     4.7911,     15.000,    5.399635e-01
 337,     4.7904,     15.000,    5.255520e-01
 338,     4.7785,      1.728,    5.818841e-01
 339,     4.7773,      4.233,    4.684024e-01
 340,     4.7719,     15.000,    4.436006e-01
 341,     4.7645,     15.000,    4.060006e-01
 342,     4.7558,     15.000,    4.100630e-01
 343,     4.7401,     15.000,    1.345984e-01
 344,     4.7143,     15.000,    1.634407e-01
 345,     4.6972,     15.000,    1.446759e-01
 346,     4.6808,     15.000,    7.439344e-02
 347,     4.6703,     15.000,    5.983932e-02
 348,     4.6562,     15.000,    1.215989e-01
 349,     4.6413,      9.745,    1.563840e-01
 350,     4.6314,     10.380,    1.804302e-01
 351,     4.6230,     15.000,    1.352380e-01
 352,     4.6115,     15.000,    8.715546e-02
 353,     4.5996,     15.000,    7.892088e-02
 354,     4.5909,      6.934,    4.256102e-02
 355,     4.5881,      8.095,    3.920349e-02
 356,     4.5775,     15.000,    7.588773e-02
 357,     4.5701,     12.195,    5.614084e-02
 358,     4.5670,      2.407,    1.476105e-02
 359,     4.5546,     15.000,    8.347630e-02
 360,     4.5424,     15.000,    1.227212e-01
 361,     4.5120,     15.000,    1.266358e-01
 362,     4.4998,     15.000,    1.293859e-01
 363,     4.4890,     15.000,    1.169297e-01
 364,     4.4770,     15.000,    9.266471e-02
 365,     4.4706,      5.936,    3.157163e-02
 366,     4.4620,     15.000,    5.635624e-02
 367,     4.4561,      7.496,    4.223891e-02
 368,     4.4439,      8.418,    3.184320e-02
 369,     4.4409,      0.970,    5.799020e-03
 370,     4.4319,     15.000,    9.511241e-02
 371,     4.4210,     15.000,    8.620629e-02
 372,     4.4082,     15.000,    8.281960e-02
 373,     4.3978,     15.000,    1.058196e-01
 374,     4.3878,     15.000,    4.877190e-02
 375,     4.3783,     14.111,    1.057725e-01
 376,     4.3658,     15.000,    1.337592e-01
 377,     4.3457,     15.000,    9.305560e-02
 378,     4.3343,     15.000,    1.189475e-01
 379,     4.3055,     15.000,    1.039653e-01
 380,     4.2879,     15.000,    1.006615e-01
 381,     4.2731,     15.000,    6.779671e-02
 382,     4.2663,     15.000,    1.538582e-01
 383,     4.2590,      5.043,    1.959473e-02
 384,     4.2505,     15.000,    1.799207e-01
 385,     4.2434,     15.000,    2.291936e-01
 386,     4.2373,      0.125,    8.793957e-03
 387,     4.2351,     11.166,    1.318104e-01
 388,     4.2270,     13.637,    9.918919e-02
 389,     4.2223,     11.708,    1.201507e-01
 390,     4.2131,     15.000,    2.457469e-01
 391,     4.2032,     11.573,    1.498862e-01
 392,     4.1920,      6.534,    3.125642e-02
 393,     4.1802,     15.000,    6.199460e-02
 394,     4.1694,     15.000,    8.350640e-02
 395,     4.1594,     15.000,    2.116363e-01
 396,     4.1325,      4.926,    3.215745e+00
 397,     4.1310,      5.660,    2.796070e+00
 398,     4.1241,      6.335,    5.525261e+00
 399,     4.1220,      5.255,    3.643181e+00
 400,     4.1204,      5.873,    3.976750e+00
 401,     4.1128,      8.085,    7.616952e+00
 402,     4.1023,     13.686,    4.103402e-01
 403,     4.0957,     15.000,    2.119039e-01
 404,     4.0865,     15.000,    1.169226e-01
 405,     4.0776,     15.000,    1.247778e-01
 406,     4.0653,     15.000,    1.773249e-01
 407,     4.0514,     15.000,    8.948659e-02
 408,     4.0426,      8.471,    3.126863e-02
 409,     4.0368,      4.393,    4.094103e-02
 410,     4.0275,     12.653,    1.288011e-01
 411,     4.0250,     12.602,    3.906606e-01
 412,     4.0176,      8.562,    7.578213e-02
 413,     4.0088,     12.526,    3.814220e-01
 414,     3.9893,     11.252,    2.180905e-01
 415,     3.9850,     13.975,    2.929366e-01
 416,     3.9490,     14.125,    1.105823e-01
 417,     3.9428,     12.275,    1.115949e-01
 418,     3.9360,     15.000,    1.582006e-01
 419,     3.9298,     15.000,    2.761705e-01
 420,     3.9276,      0.086,    8.797840e-03
 421,     3.9221,     14.249,    1.360165e-01
 422,     3.9155,     10.008,    6.945546e-02
 423,     3.9049,     12.712,    8.783133e-02
 424,     3.8942,     11.405,    2.331796e-01
 425,     3.8909,     14.160,    3.499868e-01
 426,     3.8772,     15.000,    5.066648e-01
 427,     3.8561,     15.000,    7.372816e-01
 428,     3.8463,     15.000,    4.533872e-01
 429,     3.8399,     15.000,    4.690814e-01
 430,     3.8318,     15.000,    6.120398e-01
 431,     3.8184,     14.037,    6.120825e-01
 432,     3.8133,     11.181,    1.146615e+00
 433,     3.8074,      7.837,    3.331034e-01
