index,   freq_ppm,   decay_hz, amplitude
   1,     8.9820,      8.832,    2.237988e-02
   2,     8.9782,     15.000,    7.439526e-02
   3,     8.9711,     13.069,    9.317859e-02
   4,     8.9566,     15.000,    7.616538e-02
   5,     8.9489,     11.844,    6.175070e-02
   6,     8.9277,     15.000,    8.037065e-02
   7,     8.9119,     15.000,    5.630955e-02
   8,     8.9006,     13.879,    5.609694e-02
   9,     8.8951,      5.604,    2.694792e-02
  10,     8.8875,     12.336,    7.054766e-02
  11,     8.8782,     14.697,    1.197665e-01
  12,     8.8637,     15.000,    1.022271e-01
  13,     8.8501,     14.849,    6.924621e-02
  14,     8.8402,     15.000,    8.710090e-02
  15,     8.8321,     11.225,    2.851017e-02
  16,     8.8251,     14.901,    8.521503e-02
  17,     8.8142,     15.000,    9.795757e-02
  18,     8.7932,     15.000,    1.017031e-01
  19,     8.7643,     15.000,    9.228776e-02
  20,     8.7486,     15.000,    1.090849e-01
  21,     8.7292,     14.864,    1.249245e-01
  22,     8.7177,     14.980,    8.707123e-02
  23,     8.7009,     14.947,    1.048824e-01
  24,     8.6795,     15.000,    9.147032e-02
  25,     8.6719,     15.000,    3.630170e-02
  26,     8.6617,     15.000,    1.148830e-01
  27,     8.6515,     15.000,    1.056164e-01
  28,     8.6394,     15.000,    1.328101e-01
  29,     8.6211,     15.000,    1.056825e-01
  30,     8.6126,     13.863,    3.198665e-02
  31,     8.6017,     15.000,    8.044626e-02
  32,     8.5909,     12.924,    2.795836e-02
  33,     8.5845,     15.000,    1.136502e-01
  34,     8.5721,     15.000,    9.485532e-02
  35,     8.5586,     14.560,    5.614467e-02
  36,     8.5455,     15.000,    5.602619e-02
  37,     8.5330,     15.000,    8.124290e-02
  38,     8.5265,     13.701,    3.202751e-02
  39,     8.5201,     15.000,    9.872160e-02
  40,     8.4996,     15.000,    1.021595e-01
  41,     8.4850,     15.000,    6.224536e-02
  42,     8.4699,     15.000,    1.030139e-01
  43,     8.4546,     15.000,    9.099532e-02
  44,     8.4455,      6.932,    3.855433e-01
  45,     8.4297,     15.000,    1.047258e-01
  46,     8.4146,     15.000,    1.115776e-01
  47,     8.4054,      9.134,    5.969956e-02
  48,     8.3991,      8.162,    3.908452e-02
  49,     8.3904,     15.000,    9.889688e-02
  50,     8.3796,     10.026,    6.119858e-02
  51,     8.3705,     15.000,    9.366275e-02
  52,     8.3595,     15.000,    8.841389e-02
  53,     8.3487,     15.000,    1.084226e-01
  54,     8.3370,     15.000,    1.189725e-01
  55,     8.3252,     15.000,    6.825267e-02
  56,     8.3130,     15.000,    1.054853e-01
  57,     8.3032,     11.637,    5.943448e-02
  58,     8.2954,      8.447,    3.919007e-02
  59,     8.2873,     13.715,    5.835226e-02
  60,     8.2766,     15.000,    9.975202e-02
  61,     8.2701,     15.000,    5.718612e-02
  62,     8.2589,     12.034,    3.847726e-02
  63,     8.2431,     15.000,    1.087406e-01
  64,     8.2295,     15.000,    8.451644e-02
  65,     8.2217,     15.000,    1.163719e-01
  66,     8.2132,     15.000,    5.978652e-02
  67,     8.2041,     13.438,    4.311172e-02
  68,     8.1943,     14.788,    7.704107e-02
  69,     8.1875,      4.423,    2.357532e-02
  70,     8.1818,     15.000,    7.560474e-02
  71,     8.1585,     15.000,    8.560574e-02
  72,     8.1417,     14.617,    6.401625e-02
  73,     8.1299,     15.000,    6.473300e-02
  74,     8.1223,     15.000,    5.039877e-02
  75,     8.1121,      8.684,    4.827420e-02
  76,     8.1034,     13.899,    6.561176e-02
  77,     8.0940,     13.568,    3.633009e-02
  78,     8.0881,     15.000,    5.943378e-02
  79,     8.0734,     15.000,    1.159011e-01
  80,     8.0477,     15.000,    1.070747e-01
  81,     8.0309,     15.000,    1.228905e-01
  82,     7.9923,     15.000,    1.191126e-01
  83,     7.9480,     15.000,    1.086994e-01
  84,     7.9340,     15.000,    1.078168e-01
  85,     7.9143,     15.000,    1.026906e-01
  86,     7.9054,      0.015,    1.012136e-02
  87,     7.8976,     14.936,    7.845762e-02
  88,     7.8797,     15.000,    6.639345e-02
  89,     7.8747,      1.828,    1.980316e-02
  90,     7.8672,      9.542,    4.440409e-02
  91,     7.8587,      7.809,    4.108027e-02
  92,     7.8546,      5.225,    1.872066e-02
  93,     7.8476,      7.922,    3.168562e-02
  94,     7.8406,      9.534,    3.896939e-02
  95,     7.8321,      8.428,    3.928243e-02
  96,     7.8278,      4.128,    1.669811e-02
  97,     7.8234,     15.000,    6.459254e-02
  98,     7.8123,     11.307,    5.385610e-02
  99,     7.7975,     12.036,    5.839237e-02
 100,     7.7907,     11.381,    4.728424e-02
 101,     7.7831,     11.125,    3.563780e-02
 102,     7.7736,      8.627,    2.953476e-02
 103,     7.7660,     12.395,    8.131456e-02
 104,     7.7531,      9.938,    4.151994e-02
 105,     7.7411,     10.491,    4.960060e-02
 106,     7.7321,      0.980,    1.069473e-02
 107,     7.7279,     14.659,    9.370561e-02
 108,     7.7209,     15.000,    7.370494e-02
 109,     7.7091,     15.000,    9.962415e-02
 110,     7.7007,     12.974,    3.485055e-02
 111,     7.6951,     14.214,    8.355585e-02
 112,     7.6771,     15.000,    1.092674e-01
 113,     7.6666,     15.000,    6.164533e-02
 114,     7.6560,     15.000,    1.141133e-01
 115,     7.6415,     15.000,    8.822419e-02
 116,     7.6311,      9.125,    4.347307e-02
 117,     7.6243,     15.000,    1.161719e-01
 118,     7.6085,     14.973,    8.880583e-02
 119,     7.6002,     13.126,    8.977281e-02
 120,     7.5914,     12.149,    1.013022e-01
 121,     7.5829,     15.000,    1.534009e-01
 122,     7.5710,     15.000,    1.205658e-01
 123,     7.5638,     15.000,    9.774283e-02
 124,     7.5514,     13.840,    7.853423e-02
 125,     7.5430,     15.000,    1.502034e-01
 126,     7.5300,     15.000,    5.859502e-02
 127,     7.5202,     14.652,    1.252428e-01
 128,     7.5109,     15.000,    9.725948e-02
 129,     7.5020,     15.000,    1.115746e-01
 130,     7.4933,     15.000,    1.049235e-01
 131,     7.4833,     15.000,    6.924775e-02
 132,     7.4724,     15.000,    9.836394e-02
 133,     7.4656,      8.132,    3.778458e-02
 134,     7.4536,     14.769,    1.207555e-01
 135,     7.4401,     14.846,    5.130823e-02
 136,     7.4244,     15.000,    9.732483e-02
 137,     7.4142,     15.000,    5.673577e-02
 138,     7.4033,     13.691,    5.311980e-02
 139,     7.3946,     14.219,    7.737955e-02
 140,     7.3864,     15.000,    8.785215e-02
 141,     7.3768,     15.000,    4.627334e-02
 142,     7.3694,     15.000,    5.959922e-02
 143,     7.3625,     13.189,    8.999288e-02
 144,     7.3518,     12.086,    8.071700e-02
 145,     7.3435,     15.000,    9.440188e-02
 146,     7.3393,      9.440,    8.041520e-02
 147,     7.3319,      6.711,    2.535735e-02
 148,     7.3261,     10.776,    8.135907e-02
 149,     7.3172,     15.000,    9.829051e-02
 150,     7.3074,     15.000,    1.176658e-01
 151,     7.2955,     15.000,    1.190685e-01
 152,     7.2845,     15.000,    1.244814e-01
 153,     7.2715,     15.000,    1.350735e-01
 154,     7.2554,     15.000,    1.541092e-01
 155,     7.2367,     15.000,    1.083414e-01
 156,     7.2234,     14.206,    7.215485e-02
 157,     7.2105,     15.000,    6.841220e-02
 158,     7.2008,     15.000,    6.095712e-02
 159,     7.1834,     15.000,    1.164597e-01
 160,     7.1645,     14.909,    1.119766e-01
 161,     7.1433,     15.000,    8.054497e-02
 162,     7.1187,     15.000,    7.676160e-02
 163,     7.1128,     14.936,    1.026626e-01
 164,     7.0997,     14.878,    9.492938e-02
 165,     7.0891,     15.000,    7.200831e-02
 166,     7.0802,      8.732,    1.523296e-01
 167,     7.0705,     10.410,    7.990704e-02
 168,     7.0565,     15.000,    7.859990e-02
 169,     7.0466,     15.000,    1.051992e-01
 170,     7.0393,     14.494,    7.564995e-02
 171,     7.0263,     12.472,    8.333305e-02
 172,     7.0164,     15.000,    9.388785e-02
 173,     7.0064,     14.699,    8.416501e-02
 174,     6.9972,     15.000,    1.107833e-01
 175,     6.9775,     15.000,    1.355798e-01
 176,     6.9591,     15.000,    1.711202e-01
 177,     6.9409,     15.000,    8.856436e-02
 178,     6.9213,     15.000,    8.628697e-02
 179,     6.9098,     14.885,    8.374812e-02
 180,     6.8966,     15.000,    8.466153e-02
 181,     6.8836,     15.000,    8.414333e-02
 182,     6.8659,     15.000,    1.178368e-01
 183,     6.8511,     15.000,    7.430472e-02
 184,     6.8394,     15.000,    8.262734e-02
 185,     6.8204,     15.000,    1.186565e-01
 186,     6.8086,     15.000,    9.872521e-02
 187,     6.7934,     15.000,    5.884293e-02
 188,     6.7828,     15.000,    1.177108e-01
 189,     6.7665,     15.000,    9.594521e-02
 190,     6.7524,     15.000,    1.188959e-01
 191,     6.7304,     15.000,    1.066100e-01
 192,     6.7200,     15.000,    7.889561e-02
 193,     6.7109,     15.000,    1.022970e-01
 194,     6.6975,     15.000,    7.178916e-02
 195,     6.6827,     15.000,    1.231135e-01
 196,     6.6686,     15.000,    7.755893e-02
 197,     6.6591,     13.629,    9.186138e-02
 198,     6.6499,     12.924,    4.574508e-02
 199,     6.6399,     14.632,    7.814424e-02
 200,     6.6229,     14.712,    8.544995e-02
 201,     6.6124,     15.000,    1.063068e-01
 202,     6.6113,     15.000,    1.499763e-01
 203,     6.5917,     15.000,    1.006377e-01
 204,     6.5786,     15.000,    6.418789e-02
 205,     6.5628,     15.000,    7.903982e-02
 206,     6.5516,     15.000,    1.034746e-01
 207,     6.5372,     13.954,    9.955884e-02
 208,     6.5270,      9.037,    5.387672e-02
 209,     6.5174,      9.944,    5.915319e-02
 210,     6.5100,     15.000,    1.471433e-02
 211,     6.4993,     15.000,    1.086618e-01
 212,     6.4877,     14.476,    8.485746e-02
 213,     6.4772,     15.000,    7.960171e-02
 214,     6.4685,     10.931,    5.889794e-02
 215,     6.4619,     13.421,    8.116280e-02
 216,     6.4558,     10.164,    2.524323e-02
 217,     6.4495,     15.000,    1.288266e-01
 218,     6.4379,     15.000,    3.617221e-02
 219,     6.4271,     12.162,    7.810723e-02
 220,     6.4200,     13.166,    8.223108e-02
 221,     6.4133,     14.993,    7.222027e-02
 222,     6.4010,     15.000,    1.208595e-01
 223,     6.3924,      5.088,    1.945884e-02
 224,     6.3887,      8.696,    3.898672e-02
 225,     6.3857,     10.318,    2.440657e-02
 226,     6.3731,     15.000,    1.193489e-01
 227,     6.3637,      6.365,    9.144605e-02
 228,     6.3587,      9.136,    4.804422e-02
 229,     6.3553,      6.345,    1.242166e-02
 230,     6.3516,      4.514,    2.212193e-02
 231,     6.3454,     12.015,    5.254966e-02
 232,     6.3404,      5.496,    1.652082e-02
 233,     6.3265,     15.000,    1.077252e-01
 234,     6.3134,     15.000,    1.063682e-01
 235,     6.3029,     15.000,    1.179164e-01
 236,     6.2942,     15.000,    1.365705e-01
 237,     6.2717,     15.000,    9.407131e-02
 238,     6.2595,     15.000,    9.499594e-02
 239,     6.2415,     15.000,    6.469110e-02
 240,     6.2295,     14.632,    6.668131e-02
 241,     6.2236,      8.775,    4.589847e-02
 242,     6.2147,     15.000,    1.140294e-01
 243,     6.2086,     12.240,    4.038016e-02
 244,     6.1997,     15.000,    5.823476e-02
 245,     6.1874,     12.966,    1.647296e-02
 246,     6.1789,     15.000,    1.249228e-01
 247,     6.1699,     12.924,    1.528463e-02
 248,     6.1659,     15.000,    1.030030e-01
 249,     6.1537,     15.000,    9.146611e-02
 250,     6.1395,     13.905,    8.624808e-02
 251,     6.1318,      8.761,    4.830145e-02
 252,     6.1275,     10.455,    4.222740e-02
 253,     6.1222,      6.689,    4.709174e-02
 254,     6.1119,     13.793,    4.505653e-02
 255,     6.1032,     15.000,    1.289472e-01
 256,     6.0937,     15.000,    1.285489e-01
 257,     6.0881,     15.000,    1.529058e-02
 258,     6.0761,     15.000,    6.141054e-02
 259,     6.0650,     15.000,    9.643527e-02
 260,     6.0534,     15.000,    1.026909e-01
 261,     6.0370,     15.000,    9.985299e-02
 262,     6.0292,     15.000,    6.222607e-02
 263,     6.0202,     15.000,    1.318130e-01
 264,     6.0109,     15.000,    1.388149e-01
 265,     5.9992,     15.000,    8.783334e-02
 266,     5.9895,     10.330,    3.313146e-02
 267,     5.9810,     15.000,    1.460400e-01
 268,     5.9734,     15.000,    1.183933e-01
 269,     5.9657,     13.884,    6.566051e-02
 270,     5.9548,     10.537,    3.463381e-02
 271,     5.9478,     15.000,    1.260814e-01
 272,     5.9388,     15.000,    2.017373e-01
 273,     5.9266,     15.000,    2.056078e-01
 274,     5.9124,     15.000,    1.572115e-01
 275,     5.8989,     15.000,    1.157934e-01
 276,     5.8873,     15.000,    1.611678e-01
 277,     5.8723,     15.000,    1.133676e-01
 278,     5.8486,     15.000,    9.936125e-02
 279,     5.8386,     15.000,    1.026559e-01
 280,     5.8271,     15.000,    1.292266e-01
 281,     5.8102,     14.939,    1.246317e-01
 282,     5.7997,     15.000,    9.549173e-02
 283,     5.7801,     15.000,    1.016478e-01
 284,     5.7626,     15.000,    1.188258e-01
 285,     5.7541,      9.394,    5.290533e-02
 286,     5.7490,      4.905,    3.701814e-02
 287,     5.7397,      9.160,    5.252829e-02
 288,     5.7296,      4.469,    2.747429e-02
 289,     5.7236,     13.196,    6.455272e-02
 290,     5.7118,     15.000,    9.810619e-02
 291,     5.6975,     15.000,    1.168460e-01
 292,     5.6864,     15.000,    8.567327e-02
 293,     5.6778,     15.000,    1.313988e-01
 294,     5.6686,     15.000,    2.911882e-01
 295,     5.6620,     15.000,    2.733878e-01
 296,     5.6447,      8.115,    3.598882e-01
 297,     5.6430,      9.247,    3.929688e-01
 298,     5.6392,     10.617,    8.541033e-01
 299,     5.6284,     15.000,    1.274768e-01
 300,     5.6149,     15.000,    1.089345e-01
 301,     5.6073,     14.768,    5.588670e-02
 302,     5.5985,     15.000,    1.101085e-01
 303,     5.5893,     14.758,    6.521446e-02
 304,     5.5785,     15.000,    7.254829e-02
 305,     5.5674,     15.000,    6.165575e-02
 306,     5.5551,     15.000,    1.354867e-01
 307,     5.5468,     12.924,    2.934297e-02
 308,     5.5402,     15.000,    8.243947e-02
 309,     5.5237,     15.000,    8.631726e-02
 310,     5.5107,     15.000,    7.255216e-02
 311,     5.5000,     15.000,    8.001141e-02
 312,     5.4914,     14.790,    2.101633e-01
 313,     5.4865,     15.000,    1.499711e-01
 314,     5.4726,     15.000,    9.993244e-02
 315,     5.4504,     15.000,    7.415564e-02
 316,     5.4330,     15.000,    1.435592e-01
 317,     5.4031,     15.000,    1.335093e-01
 318,     5.3928,     14.980,    1.315236e-01
 319,     5.3784,     15.000,    1.277170e-01
 320,     5.3573,     15.000,    1.067941e-01
 321,     5.3296,      8.127,    3.328257e-01
 322,     5.3250,      9.295,    3.971217e-01
 323,     5.3109,      7.514,    2.773130e-02
 324,     5.3049,      5.144,    2.174427e-02
 325,     5.2934,     15.000,    5.650735e-02
 326,     5.2857,     11.203,    4.642216e-02
 327,     5.2275,      5.181,    9.664598e+00
 328,     5.2263,      2.356,    1.236166e+01
 329,     5.2249,      2.402,    8.434392e+00
 330,     5.2224,      4.426,    1.049049e+01
 331,     5.2210,      6.230,    2.690485e+01
 332,     5.1891,     15.000,    2.646400e-01
 333,     5.1824,     15.000,    1.478645e-01
 334,     5.1729,     15.000,    2.283594e-01
 335,     5.1580,     15.000,    1.023115e-01
 336,     5.1480,     15.000,    1.213147e-01
 337,     5.1159,     15.000,    5.783591e-01
 338,     5.1130,     13.592,    5.160604e-01
 339,     5.0928,     15.000,    9.876253e-02
 340,     5.0764,     15.000,    1.280186e-01
 341,     5.0551,     15.000,    1.263041e-01
 342,     5.0400,     15.000,    1.223613e-01
 343,     5.0215,     15.000,    8.284076e-02
 344,     5.0045,     15.000,    8.422370e-02
 345,     4.9960,     15.000,    1.030161e-01
 346,     4.9834,     15.000,    1.295201e-01
 347,     4.9728,     14.431,    7.575412e-02
 348,     4.9566,     12.629,    7.953969e-02
 349,     4.9502,     15.000,    1.259391e-01
 350,     4.9403,     15.000,    9.996495e-02
 351,     4.9292,     15.000,    6.506754e-02
 352,     4.9194,     14.751,    1.042626e-01
 353,     4.9144,     14.834,    2.832398e-01
 354,     4.9042,     15.000,    8.128307e-02
 355,     4.8913,     14.878,    1.444409e-01
 356,     4.8797,     15.000,    6.290665e-02
 357,     4.8728,     13.629,    9.854054e-02
 358,     4.8639,     13.509,    1.083512e-01
 359,     4.8483,     15.000,    9.013871e-02
 360,     4.8365,     14.632,    8.143450e-02
 361,     4.8260,     14.920,    1.657427e-01
 362,     4.8167,     15.000,    1.897140e-01
 363,     4.8102,     15.000,    1.525468e-01
 364,     4.8037,     12.633,    1.277487e-01
 365,     4.7982,     14.686,    9.279835e-02
 366,     4.7897,     15.000,    2.058672e-01
 367,     4.7762,     15.000,    1.562774e-01
 368,     4.7679,     15.000,    1.552109e-01
 369,     4.7584,     15.000,    1.343195e-01
 370,     4.7481,     15.000,    1.567389e-01
 371,     4.7397,     10.653,    1.276602e-01
 372,     4.7298,     13.355,    1.538026e-01
 373,     4.7148,     14.632,    1.026519e-01
 374,     4.7072,     10.357,    8.245570e-02
 375,     4.6420,      4.372,    1.611917e+01
 376,     4.6409,      5.714,    4.180845e+01
 377,     4.6374,      5.503,    5.134769e-01
 378,     4.6352,      3.873,    2.615741e-01
 379,     4.6316,      5.799,    4.485320e+01
 380,     4.6305,      4.221,    1.422036e+01
 381,     4.5822,     15.000,    9.890410e-02
 382,     4.5707,     15.000,    1.550487e-01
 383,     4.5610,     10.795,    5.122418e-02
 384,     4.5514,     15.000,    7.616106e-02
 385,     4.5378,      7.886,    5.769677e-01
 386,     4.5278,      7.595,    5.794942e-01
 387,     4.5115,     13.765,    5.294451e-02
 388,     4.5006,     14.291,    7.013208e-02
 389,     4.4826,     15.000,    6.284974e-02
 390,     4.4735,     15.000,    6.499626e-02
 391,     4.4621,     15.000,    1.064803e-01
 392,     4.4421,     14.101,    9.338500e-02
 393,     4.4351,      8.792,    4.202041e-02
 394,     4.4252,     14.184,    4.536572e-02
 395,     4.4193,     11.582,    4.097042e-02
 396,     4.4095,      8.577,    4.686411e-02
 397,     4.4038,      8.814,    3.788744e-02
 398,     4.3973,     15.000,    1.171666e-01
 399,     4.3859,     12.981,    7.663973e-02
 400,     4.3755,     15.000,    1.025919e-01
 401,     4.3617,     14.718,    7.750221e-02
 402,     4.3539,     15.000,    1.021561e-01
 403,     4.3400,     14.502,    7.039846e-02
 404,     4.3237,     14.745,    4.577892e-02
 405,     4.3129,     15.000,    1.686127e-01
 406,     4.3065,     15.000,    3.524453e-01
 407,     4.2967,     11.375,    3.143001e-01
 408,     4.2868,     10.593,    2.201638e-01
 409,     4.2770,     11.582,    3.149184e-01
 410,     4.2716,     13.563,    3.883106e-01
 411,     4.2615,      9.496,    1.434737e+00
 412,     4.2568,      8.887,    1.245641e+00
 413,     4.2458,     10.625,    1.538118e-01
 414,     4.2408,     11.907,    2.560678e-01
 415,     4.2216,      9.968,    5.290138e-02
 416,     4.2076,     15.000,    8.604734e-02
 417,     4.1904,     15.000,    2.005081e-01
 418,     4.1733,     15.000,    8.340354e-01
 419,     4.1622,     15.000,    9.638529e-02
 420,     4.1474,     13.482,    2.212377e+00
 421,     4.1443,      7.693,    8.744290e-01
 422,     4.1380,     14.063,    2.005767e-01
 423,     4.1308,      4.622,    3.953154e-02
 424,     4.1144,     15.000,    1.966371e-01
 425,     4.1081,     13.786,    4.652551e-01
 426,     4.1019,      5.841,    7.454453e-02
 427,     4.0916,     11.971,    2.390334e-01
 428,     4.0885,      7.403,    2.532349e-01
 429,     4.0787,      8.588,    2.971838e-01
 430,     4.0658,      7.394,    7.399240e-02
 431,     4.0439,      6.567,    4.704407e-01
 432,     4.0410,      7.210,    4.802703e-01
 433,     4.0329,      1.478,    7.839262e-02
