index,   freq_ppm,   decay_hz, amplitude
   1,     8.9508,     15.000,    1.642526e-01
   2,     8.9406,     15.000,    1.512410e-01
   3,     8.9286,     15.000,    1.793386e-01
   4,     8.9125,     15.000,    1.532831e-01
   5,     8.8973,     15.000,    2.117479e-01
   6,     8.8817,     12.684,    1.237053e-01
   7,     8.8737,      6.805,    3.032019e-02
   8,     8.8682,      4.791,    4.855400e-02
   9,     8.8590,     13.056,    1.208657e-01
  10,     8.8496,     15.000,    1.915090e-01
  11,     8.8269,     15.000,    2.027367e-01
  12,     8.8039,     15.000,    1.901206e-01
  13,     8.7743,     15.000,    2.263931e-01
  14,     8.7601,     15.000,    1.741113e-01
  15,     8.7426,     15.000,    1.559059e-01
  16,     8.7040,     15.000,    1.584963e-01
  17,     8.6902,     15.000,    1.593660e-01
  18,     8.6754,     15.000,    1.588004e-01
  19,     8.6626,     15.000,    1.689591e-01
  20,     8.6419,     15.000,    1.533173e-01
  21,     8.6237,     15.000,    1.590119e-01
  22,     8.6103,     15.000,    9.559871e-02
  23,     8.6023,     14.957,    8.822780e-02
  24,     8.5912,     14.479,    9.661806e-02
  25,     8.5788,     14.973,    1.690049e-01
  26,     8.5701,     15.000,    1.127667e-01
  27,     8.5561,     15.000,    7.798667e-02
  28,     8.5454,     15.000,    1.463998e-01
  29,     8.5349,     15.000,    1.209144e-01
  30,     8.5203,     15.000,    1.266028e-01
  31,     8.5071,     15.000,    1.007962e-01
  32,     8.4897,     15.000,    1.170837e-01
  33,     8.4754,     15.000,    1.941894e-01
  34,     8.4693,      7.230,    7.704791e-02
  35,     8.4592,      8.254,    6.695168e-02
  36,     8.4460,      4.011,    1.542216e-01
  37,     8.4451,      8.558,    3.249274e-01
  38,     8.4357,     13.985,    1.224456e-01
  39,     8.4223,     13.187,    7.102734e-02
  40,     8.4146,      7.453,    8.452772e-02
  41,     8.4064,      4.656,    4.020764e-02
  42,     8.3968,      9.019,    8.401973e-02
  43,     8.3896,     13.568,    4.403695e-02
  44,     8.3828,      5.466,    5.316214e-02
  45,     8.3760,     15.000,    1.497421e-01
  46,     8.3677,     15.000,    1.214208e-01
  47,     8.3553,     12.615,    8.570678e-02
  48,     8.3469,     15.000,    1.220429e-01
  49,     8.3320,     15.000,    9.004096e-02
  50,     8.3158,     13.576,    1.050293e-01
  51,     8.3047,     15.000,    1.405701e-01
  52,     8.2992,     12.597,    5.333366e-02
  53,     8.2871,     15.000,    1.203123e-01
  54,     8.2819,     12.637,    6.801900e-02
  55,     8.2717,     14.030,    1.339182e-01
  56,     8.2630,     12.059,    8.850567e-02
  57,     8.2543,     11.447,    7.580107e-02
  58,     8.2477,      7.856,    7.540131e-02
  59,     8.2440,      9.413,    4.692418e-02
  60,     8.2348,     15.000,    1.702968e-01
  61,     8.2302,      8.641,    7.353484e-02
  62,     8.2207,      9.021,    6.314201e-02
  63,     8.2172,      5.624,    4.174226e-02
  64,     8.2121,      9.323,    7.400517e-02
  65,     8.2050,     15.000,    1.647829e-01
  66,     8.1898,     15.000,    2.055660e-01
  67,     8.1566,     15.000,    2.251963e-01
  68,     8.1250,     15.000,    2.202882e-01
  69,     8.1073,     15.000,    2.001504e-01
  70,     8.0936,     15.000,    1.881691e-01
  71,     8.0809,     15.000,    1.612992e-01
  72,     8.0569,     15.000,    1.341240e-01
  73,     8.0458,     15.000,    1.704197e-01
  74,     8.0345,     15.000,    2.186618e-01
  75,     8.0153,     15.000,    1.605497e-01
  76,     8.0046,     15.000,    1.280475e-01
  77,     7.9922,     15.000,    1.607452e-01
  78,     7.9821,     15.000,    1.391846e-01
  79,     7.9727,     14.699,    1.051938e-01
  80,     7.9533,     15.000,    1.185688e-01
  81,     7.9421,     15.000,    2.087215e-01
  82,     7.9193,     15.000,    1.714557e-01
  83,     7.9087,     15.000,    1.803457e-01
  84,     7.8953,     15.000,    1.507852e-01
  85,     7.8835,     11.403,    1.005842e-01
  86,     7.8770,     14.560,    9.383485e-02
  87,     7.8685,     12.787,    1.221516e-01
  88,     7.8618,     15.000,    1.125739e-01
  89,     7.8530,      9.101,    7.803313e-02
  90,     7.8303,     15.000,    9.098571e-02
  91,     7.8173,     13.352,    8.448282e-02
  92,     7.8111,      6.601,    4.408162e-02
  93,     7.8019,     13.265,    8.652513e-02
  94,     7.7927,     15.000,    8.956185e-02
  95,     7.7796,     15.000,    2.278945e-01
  96,     7.7664,     15.000,    1.497421e-01
  97,     7.7494,     15.000,    1.190360e-01
  98,     7.7402,     14.909,    1.324701e-01
  99,     7.7273,     15.000,    1.922153e-01
 100,     7.7183,     13.515,    1.148936e-01
 101,     7.7123,     10.642,    9.930553e-02
 102,     7.7022,      6.077,    6.355048e-02
 103,     7.6966,      6.979,    6.530610e-02
 104,     7.6854,     15.000,    1.237948e-01
 105,     7.6790,     15.000,    1.553530e-01
 106,     7.6678,     14.245,    1.100628e-01
 107,     7.6599,     11.046,    8.915751e-02
 108,     7.6538,     15.000,    1.539637e-01
 109,     7.6431,     15.000,    1.010121e-01
 110,     7.6351,     15.000,    1.489539e-01
 111,     7.6275,      6.595,    3.431552e-02
 112,     7.6177,     14.095,    1.187479e-01
 113,     7.6086,     14.846,    7.641615e-02
 114,     7.6011,     15.000,    1.298241e-01
 115,     7.5863,     15.000,    1.152994e-01
 116,     7.5502,     15.000,    1.562247e-01
 117,     7.5301,     15.000,    1.587957e-01
 118,     7.5172,     14.840,    9.698252e-02
 119,     7.5054,     15.000,    9.197163e-02
 120,     7.4914,     15.000,    1.248543e-01
 121,     7.4741,     14.926,    1.639969e-01
 122,     7.4615,     15.000,    1.518449e-01
 123,     7.4504,     14.866,    1.599337e-01
 124,     7.4361,     14.989,    1.485219e-01
 125,     7.4184,     15.000,    1.222281e-01
 126,     7.4062,     15.000,    1.402521e-01
 127,     7.3932,     10.764,    7.446256e-02
 128,     7.3872,     10.100,    3.546216e-02
 129,     7.3811,     14.939,    9.267964e-02
 130,     7.3694,     15.000,    1.190741e-01
 131,     7.3579,     15.000,    1.092586e-01
 132,     7.3445,     15.000,    8.694141e-02
 133,     7.3356,     15.000,    9.018828e-02
 134,     7.3169,     15.000,    1.546335e-01
 135,     7.3042,     15.000,    1.257479e-01
 136,     7.2859,     15.000,    1.136858e-01
 137,     7.2639,     15.000,    8.866230e-02
 138,     7.2580,     14.873,    8.981973e-02
 139,     7.2507,     11.473,    6.320935e-02
 140,     7.2413,     15.000,    1.174830e-01
 141,     7.2250,     14.386,    9.015759e-02
 142,     7.2190,      7.291,    5.942927e-02
 143,     7.2129,      9.132,    9.941085e-02
 144,     7.2076,     10.106,    4.174988e-02
 145,     7.1996,      9.233,    8.836064e-02
 146,     7.1909,      8.647,    7.628343e-02
 147,     7.1824,      8.247,    5.869540e-02
 148,     7.1768,      4.576,    1.717273e-02
 149,     7.1725,     14.219,    1.130070e-01
 150,     7.1632,     15.000,    8.731440e-02
 151,     7.1506,     15.000,    1.685206e-01
 152,     7.1396,     15.000,    1.522721e-01
 153,     7.1261,     15.000,    6.395029e-02
 154,     7.1141,     10.614,    4.735485e-02
 155,     7.1067,     15.000,    1.396643e-01
 156,     7.1013,     14.942,    1.332484e-01
 157,     7.0928,     14.644,    1.157912e-01
 158,     7.0845,      6.489,    1.389884e-01
 159,     7.0775,     15.000,    1.062732e-01
 160,     7.0667,     15.000,    1.093225e-01
 161,     7.0531,     13.174,    9.727659e-02
 162,     7.0435,     11.179,    9.464176e-02
 163,     7.0343,     15.000,    1.978492e-01
 164,     7.0266,      6.064,    5.202807e-02
 165,     7.0208,      4.242,    3.469064e-02
 166,     7.0147,     13.987,    1.197085e-01
 167,     7.0090,     13.555,    1.335434e-01
 168,     6.9998,     14.846,    8.855166e-02
 169,     6.9870,     15.000,    1.156709e-01
 170,     6.9769,     15.000,    1.420108e-01
 171,     6.9640,     15.000,    1.490342e-01
 172,     6.9506,     14.382,    9.637339e-02
 173,     6.9420,     15.000,    2.201595e-01
 174,     6.9285,     15.000,    1.962324e-01
 175,     6.9094,     15.000,    2.705080e-01
 176,     6.8968,     15.000,    1.772622e-01
 177,     6.8850,     15.000,    1.835689e-01
 178,     6.8739,     15.000,    1.786081e-01
 179,     6.8574,     15.000,    2.018098e-01
 180,     6.8439,     15.000,    1.694788e-01
 181,     6.8338,     15.000,    1.586973e-01
 182,     6.8234,     15.000,    1.589750e-01
 183,     6.8108,     14.658,    1.213267e-01
 184,     6.7911,      3.914,    4.257175e-01
 185,     6.7896,      8.734,    2.720912e+00
 186,     6.7745,     15.000,    1.802607e-01
 187,     6.7634,     15.000,    1.146612e-01
 188,     6.7522,     15.000,    1.164799e-01
 189,     6.7369,     14.926,    1.499800e-01
 190,     6.7239,     15.000,    1.017658e-01
 191,     6.7098,     14.382,    1.685046e-01
 192,     6.7026,      5.150,    5.210147e-02
 193,     6.6941,     15.000,    1.415273e-01
 194,     6.6902,      4.995,    2.945037e-02
 195,     6.6842,     12.831,    1.615921e-01
 196,     6.6738,     10.677,    7.159931e-02
 197,     6.6645,      5.877,    5.458344e-02
 198,     6.6589,      8.030,    5.882719e-02
 199,     6.6539,     10.231,    8.302119e-02
 200,     6.6474,      6.331,    8.426139e-02
 201,     6.6352,     15.000,    1.519117e-01
 202,     6.6218,     14.978,    1.086347e-01
 203,     6.6050,     15.000,    1.339932e-01
 204,     6.5830,     15.000,    1.301527e-01
 205,     6.5600,     15.000,    1.548547e-01
 206,     6.5495,     14.720,    1.544729e-01
 207,     6.5351,     15.000,    1.328181e-01
 208,     6.5165,     15.000,    1.522539e-01
 209,     6.5085,     15.000,    1.499469e-01
 210,     6.4871,     15.000,    1.107161e-01
 211,     6.4802,     14.230,    9.331632e-02
 212,     6.4721,     14.095,    9.903496e-02
 213,     6.4613,     15.000,    1.550924e-01
 214,     6.4514,      7.658,    2.375972e-02
 215,     6.4462,     14.384,    1.190401e-01
 216,     6.4342,     13.532,    9.586630e-02
 217,     6.4281,     10.488,    9.223285e-02
 218,     6.4134,     13.792,    1.076905e-01
 219,     6.4023,     15.000,    1.405475e-01
 220,     6.3893,     15.000,    1.116188e-01
 221,     6.3759,     12.773,    5.957915e-02
 222,     6.3665,     15.000,    2.541808e-01
 223,     6.3524,     15.000,    1.524184e-01
 224,     6.3392,     15.000,    9.789058e-02
 225,     6.3268,     15.000,    8.627661e-02
 226,     6.3211,     15.000,    6.967483e-02
 227,     6.3113,     15.000,    1.841692e-01
 228,     6.2916,     15.000,    1.080207e-01
 229,     6.2822,      6.823,    3.896384e-02
 230,     6.2761,      5.843,    4.736068e-02
 231,     6.2703,     15.000,    2.148367e-01
 232,     6.2589,     15.000,    1.397677e-01
 233,     6.2448,     15.000,    1.590974e-01
 234,     6.2285,     15.000,    1.082333e-01
 235,     6.2139,     15.000,    1.377054e-01
 236,     6.2031,     14.939,    1.370190e-01
 237,     6.1854,     15.000,    1.020832e-01
 238,     6.1746,     15.000,    9.706298e-02
 239,     6.1567,     15.000,    1.605461e-01
 240,     6.1382,     14.939,    1.174894e-01
 241,     6.1248,     15.000,    1.079280e-01
 242,     6.1067,     15.000,    1.044906e-01
 243,     6.0941,     15.000,    1.475695e-01
 244,     6.0799,     14.973,    9.158874e-02
 245,     6.0614,     12.787,    1.149791e-01
 246,     6.0544,     13.699,    7.907864e-02
 247,     6.0424,     12.069,    1.084978e-01
 248,     6.0365,      5.587,    3.876906e-02
 249,     6.0275,     11.719,    7.006665e-02
 250,     6.0218,     12.811,    7.593559e-02
 251,     6.0135,     15.000,    1.822626e-01
 252,     6.0014,     15.000,    1.241256e-01
 253,     5.9822,     15.000,    1.171733e-01
 254,     5.9718,     15.000,    1.489240e-01
 255,     5.9543,     15.000,    6.780556e-02
 256,     5.9403,     15.000,    9.763019e-02
 257,     5.9311,     10.742,    7.400836e-02
 258,     5.9218,     15.000,    1.195113e-01
 259,     5.9085,     15.000,    1.269717e-01
 260,     5.8982,     15.000,    1.028825e-01
 261,     5.8782,     15.000,    1.442002e-01
 262,     5.8687,     15.000,    1.095572e-01
 263,     5.8575,     15.000,    1.750086e-02
 264,     5.8505,     15.000,    1.383436e-01
 265,     5.8377,      7.910,    7.012727e-02
 266,     5.8307,      7.436,    8.466084e-02
 267,     5.8250,      7.745,    4.779871e-02
 268,     5.8179,      6.430,    2.171943e-02
 269,     5.8134,     15.000,    1.536817e-01
 270,     5.8027,     15.000,    1.840240e-01
 271,     5.7894,     15.000,    1.071693e-01
 272,     5.7826,     13.502,    1.091476e-01
 273,     5.7732,      7.031,    7.159971e-02
 274,     5.7676,      8.945,    6.427143e-02
 275,     5.7605,     11.485,    9.352963e-02
 276,     5.7530,     15.000,    1.977654e-01
 277,     5.7446,      6.565,    5.453624e-02
 278,     5.7327,     15.000,    1.909778e-01
 279,     5.7197,     15.000,    1.794626e-01
 280,     5.7074,     15.000,    1.979169e-01
 281,     5.6940,     15.000,    1.301687e-01
 282,     5.6854,     15.000,    1.006016e-01
 283,     5.6697,     14.964,    1.546311e-01
 284,     5.6623,     12.240,    6.827469e-02
 285,     5.6569,     15.000,    1.629267e-01
 286,     5.6410,     15.000,    1.463702e-01
 287,     5.6309,      2.399,    2.582589e-02
 288,     5.6246,     15.000,    1.502040e-01
 289,     5.6164,     15.000,    1.137458e-01
 290,     5.6061,     15.000,    1.239156e-01
 291,     5.5925,     15.000,    1.249183e-01
 292,     5.5818,     15.000,    1.181635e-01
 293,     5.5708,     15.000,    1.047524e-01
 294,     5.5493,     15.000,    1.676372e-01
 295,     5.5388,     15.000,    1.822463e-01
 296,     5.5276,     15.000,    1.322486e-01
 297,     5.5122,     15.000,    1.446962e-01
 298,     5.4923,     15.000,    1.833377e-01
 299,     5.4738,     15.000,    1.549413e-01
 300,     5.4619,     14.857,    1.399662e-01
 301,     5.4461,     15.000,    1.231415e-01
 302,     5.4382,     15.000,    1.734543e-01
 303,     5.4266,     15.000,    1.162832e-01
 304,     5.4190,     15.000,    1.445415e-01
 305,     5.4062,     15.000,    1.706001e-01
 306,     5.3884,     15.000,    1.399149e-01
 307,     5.3797,     11.448,    1.021444e-01
 308,     5.3715,      8.296,    9.940718e-02
 309,     5.3672,      6.304,    4.569887e-02
 310,     5.3631,      7.121,    4.395357e-02
 311,     5.3566,     11.529,    1.268357e-01
 312,     5.3488,      8.760,    5.343542e-02
 313,     5.3384,     10.127,    1.081657e-01
 314,     5.3266,     14.455,    1.123158e-01
 315,     5.3188,     15.000,    9.040967e-02
 316,     5.3082,     14.055,    6.949645e-02
 317,     5.2934,     15.000,    1.194270e-01
 318,     5.2833,     15.000,    1.132278e-01
 319,     5.2737,     15.000,    7.125863e-02
 320,     5.2661,     15.000,    9.008028e-02
 321,     5.2451,     15.000,    1.567232e-01
 322,     5.2318,      5.311,    2.701419e-02
 323,     5.2264,      9.262,    2.795699e-01
 324,     5.2215,     11.562,    3.755647e-01
 325,     5.2060,     15.000,    7.279817e-02
 326,     5.1970,     15.000,    1.284186e-01
 327,     5.1838,     15.000,    1.254362e-01
 328,     5.1760,     11.016,    2.048090e-01
 329,     5.1653,     14.890,    1.422688e-01
 330,     5.1547,     15.000,    1.432628e-01
 331,     5.1458,     15.000,    1.795131e-01
 332,     5.1361,      9.144,    6.561679e-02
 333,     5.1285,     15.000,    1.267962e-01
 334,     5.1231,     15.000,    1.146349e-01
 335,     5.1123,     15.000,    1.426194e-01
 336,     5.0997,     15.000,    1.694992e-01
 337,     5.0849,     13.595,    1.166498e-01
 338,     5.0747,     12.876,    1.235501e-01
 339,     5.0594,     15.000,    1.352022e-01
 340,     5.0518,     14.762,    1.187317e-01
 341,     5.0361,     15.000,    1.425685e-01
 342,     5.0244,     14.912,    1.321120e-01
 343,     5.0026,     15.000,    1.672841e-01
 344,     4.9801,     15.000,    1.273517e-01
 345,     4.9549,     15.000,    1.510814e-01
 346,     4.9431,     15.000,    1.593227e-01
 347,     4.9250,     15.000,    2.323841e-01
 348,     4.9165,     15.000,    3.014656e-01
 349,     4.9073,     14.938,    1.529472e-01
 350,     4.8972,     13.389,    8.462856e-02
 351,     4.8919,      3.973,    1.469681e-02
 352,     4.8860,      4.612,    5.390619e-02
 353,     4.8755,      5.478,    4.223853e-02
 354,     4.8704,     15.000,    1.539877e-01
 355,     4.8597,      9.171,    5.090581e-02
 356,     4.8501,     15.000,    9.686258e-02
 357,     4.8384,     14.836,    1.014045e-01
 358,     4.8250,      5.876,    3.788137e-02
 359,     4.8163,     11.953,    9.559535e-02
 360,     4.8056,     14.214,    1.145096e-01
 361,     4.7905,     13.436,    6.870649e-02
 362,     4.7841,     11.711,    1.585616e-01
 363,     4.7677,     13.745,    8.546983e-02
 364,     4.7588,      5.140,    6.228325e-02
 365,     4.7524,     13.373,    2.922392e-01
 366,     4.7470,      9.132,    2.205658e-01
 367,     4.7412,     11.142,    2.478234e-01
 368,     4.7286,     14.161,    9.217499e-02
 369,     4.7178,     15.000,    8.787518e-02
 370,     4.7047,     15.000,    8.712093e-02
 371,     4.6885,     15.000,    1.154765e-01
 372,     4.6775,     15.000,    1.708894e-01
 373,     4.6648,     15.000,    1.322260e-01
 374,     4.6547,     15.000,    8.923334e-02
 375,     4.6413,     11.062,    6.021968e-01
 376,     4.6315,      8.626,    5.039455e-01
 377,     4.6198,     15.000,    9.531333e-02
 378,     4.5811,     14.042,    1.350179e-01
 379,     4.5658,      8.618,    8.637899e-01
 380,     4.5596,      8.787,    8.432329e-01
 381,     4.5569,      8.806,    9.402245e-01
 382,     4.5505,      8.803,    9.418522e-01
 383,     4.5434,     13.575,    6.980641e-02
 384,     4.5289,     11.238,    7.206526e-02
 385,     4.5134,     14.896,    1.618373e-01
 386,     4.5060,     15.000,    7.895798e-02
 387,     4.4997,     15.000,    1.458139e-01
 388,     4.4871,     11.272,    6.310261e-02
 389,     4.4770,     15.000,    2.263200e-01
 390,     4.4606,     15.000,    1.204799e-01
 391,     4.4533,     14.907,    1.380604e-01
 392,     4.4455,     13.130,    1.769138e-01
 393,     4.4407,      4.505,    2.787665e-02
 394,     4.4254,     15.000,    1.386162e-01
 395,     4.4184,     14.219,    1.002433e-01
 396,     4.4108,     15.000,    1.461943e-01
 397,     4.3980,     14.463,    7.941575e-02
 398,     4.3860,     15.000,    1.400928e-01
 399,     4.3760,     15.000,    1.566370e-01
 400,     4.3667,     15.000,    1.469589e-01
 401,     4.3513,     15.000,    1.683763e-01
 402,     4.3369,     15.000,    1.318416e-01
 403,     4.3218,     15.000,    1.194186e-01
 404,     4.3136,     14.989,    1.202210e-01
 405,     4.2973,     15.000,    2.142170e-01
 406,     4.2874,     15.000,    2.299310e-01
 407,     4.2789,      6.462,    4.105394e-02
 408,     4.2684,     13.612,    1.162914e-01
 409,     4.2597,      5.678,    5.204459e-02
 410,     4.2554,     11.636,    2.138996e-01
 411,     4.2497,      9.730,    2.575383e-01
 412,     4.2477,      6.214,    2.681748e-01
 413,     4.2404,     12.077,    9.552127e-01
 414,     4.2334,      5.654,    2.585089e-01
 415,     4.2312,      9.077,    2.924092e-01
 416,     4.2249,     15.000,    3.075264e-01
 417,     4.1911,     15.000,    8.617410e-02
 418,     4.1688,     15.000,    1.977642e-01
 419,     4.1580,     15.000,    1.660948e-01
 420,     4.1383,     15.000,    1.525587e-01
 421,     4.1297,     15.000,    1.620828e-01
 422,     4.1208,     15.000,    1.362059e-01
 423,     4.1095,     15.000,    1.870483e-01
 424,     4.0942,     15.000,    1.567787e-01
 425,     4.0887,     15.000,    7.336104e-02
 426,     4.0787,     14.291,    9.700589e-02
 427,     4.0667,     14.699,    9.326506e-02
 428,     4.0474,     15.000,    1.010829e-01
 429,     4.0332,     13.265,    1.049071e-01
 430,     4.0245,     14.152,    1.419746e-01
 431,     4.0139,     10.855,    6.866597e-02
 432,     4.0081,     11.857,    1.084794e-01
 433,     4.0020,     15.000,    2.537039e-01
