index,   freq_ppm,   decay_hz, amplitude
   1,     8.9684,      4.770,    3.025025e-02
   2,     8.9625,     15.000,    1.488347e-01
   3,     8.9553,     15.000,    5.703089e-02
   4,     8.9492,      6.943,    6.548752e-02
   5,     8.9424,     12.380,    8.892402e-02
   6,     8.9277,     15.000,    1.082145e-01
   7,     8.9115,     15.000,    1.479476e-01
   8,     8.9005,     15.000,    1.134094e-01
   9,     8.8897,     15.000,    1.273201e-01
  10,     8.8804,     15.000,    1.298295e-01
  11,     8.8650,     15.000,    1.067659e-01
  12,     8.8541,     14.869,    7.024075e-02
  13,     8.8388,     15.000,    8.557556e-02
  14,     8.8288,      4.048,    3.252513e-02
  15,     8.8213,     15.000,    1.253618e-01
  16,     8.8041,     15.000,    1.122124e-01
  17,     8.7956,     15.000,    8.161563e-02
  18,     8.7772,     15.000,    7.446759e-02
  19,     8.7615,     15.000,    1.055005e-01
  20,     8.7474,     15.000,    1.126861e-01
  21,     8.7387,     15.000,    1.395381e-01
  22,     8.7165,     15.000,    9.986598e-02
  23,     8.7028,     15.000,    1.101014e-01
  24,     8.6786,     15.000,    1.247284e-01
  25,     8.6686,     15.000,    1.659255e-01
  26,     8.6526,     15.000,    1.172348e-01
  27,     8.6387,     15.000,    1.384237e-01
  28,     8.6279,     10.837,    1.043318e-01
  29,     8.6195,     13.765,    7.892602e-02
  30,     8.6059,     15.000,    1.034398e-01
  31,     8.5928,     15.000,    1.324022e-01
  32,     8.5829,      6.735,    4.989495e-02
  33,     8.5741,     15.000,    1.362042e-01
  34,     8.5641,      7.946,    1.979126e-01
  35,     8.5572,     15.000,    7.491840e-02
  36,     8.5456,     15.000,    1.019724e-01
  37,     8.5283,     14.942,    9.601898e-02
  38,     8.5126,     15.000,    1.285961e-01
  39,     8.4455,      6.665,    1.843995e+01
  40,     8.4300,     15.000,    4.811411e-01
  41,     8.4191,     15.000,    2.881400e-01
  42,     8.4040,     15.000,    1.823609e-01
  43,     8.3921,     15.000,    1.396224e-01
  44,     8.3797,     15.000,    1.635877e-01
  45,     8.3704,     15.000,    1.214385e-01
  46,     8.3588,     15.000,    1.501083e-01
  47,     8.3468,     15.000,    1.351806e-01
  48,     8.3375,     15.000,    8.180453e-02
  49,     8.3262,     15.000,    1.291442e-01
  50,     8.3208,      7.476,    1.477848e-01
  51,     8.3124,     15.000,    1.712878e-01
  52,     8.3043,     15.000,    1.147361e-01
  53,     8.2940,     15.000,    1.039237e-01
  54,     8.2839,     15.000,    1.969032e-01
  55,     8.2692,     15.000,    1.815518e-01
  56,     8.2538,     15.000,    1.632590e-01
  57,     8.2412,     15.000,    1.779608e-01
  58,     8.2279,     15.000,    1.664491e-01
  59,     8.2062,     15.000,    1.543006e-01
  60,     8.1864,     15.000,    1.869502e-01
  61,     8.1670,     15.000,    2.472439e-01
  62,     8.1444,     15.000,    1.568872e-01
  63,     8.1264,     15.000,    1.018498e-01
  64,     8.1113,     15.000,    1.252506e-01
  65,     8.0973,     15.000,    1.341448e-01
  66,     8.0890,     15.000,    1.351339e-01
  67,     8.0823,     15.000,    1.127128e-01
  68,     8.0628,     15.000,    2.116846e-01
  69,     8.0467,     15.000,    1.769006e-01
  70,     8.0211,     15.000,    2.053805e-01
  71,     8.0061,     15.000,    1.204560e-01
  72,     7.9931,     15.000,    1.244398e-01
  73,     7.9787,     15.000,    1.645416e-01
  74,     7.9554,     15.000,    1.702496e-01
  75,     7.9475,      4.038,    2.199923e-02
  76,     7.9442,      6.863,    5.127535e-02
  77,     7.9388,     15.000,    8.123565e-02
  78,     7.9332,     14.786,    1.500673e-01
  79,     7.9257,      9.678,    6.143717e-02
  80,     7.9154,     15.000,    9.870716e-02
  81,     7.9046,     15.000,    1.071345e-01
  82,     7.8980,     15.000,    7.327101e-02
  83,     7.8850,      7.239,    6.289151e-02
  84,     7.8787,     14.269,    7.778005e-02
  85,     7.8720,     15.000,    1.024623e-01
  86,     7.8666,      3.208,    1.529181e-02
  87,     7.8584,     13.763,    9.320181e-02
  88,     7.8491,     13.229,    9.312715e-02
  89,     7.8433,     10.361,    7.733555e-02
  90,     7.8388,      6.594,    5.079836e-02
  91,     7.8324,      4.623,    4.381131e-02
  92,     7.8202,     15.000,    8.842630e-02
  93,     7.8106,      5.693,    5.116536e-02
  94,     7.8064,      5.731,    3.920585e-02
  95,     7.7983,     15.000,    5.222625e-02
  96,     7.7882,     15.000,    1.386025e-01
  97,     7.7794,     15.000,    5.603940e-02
  98,     7.7721,     15.000,    1.042541e-01
  99,     7.7616,     15.000,    1.534328e-01
 100,     7.7492,     15.000,    1.689273e-01
 101,     7.7373,     15.000,    1.055750e-01
 102,     7.7259,     15.000,    8.854518e-02
 103,     7.7198,     15.000,    9.430852e-02
 104,     7.7105,     15.000,    1.330226e-01
 105,     7.6993,     15.000,    1.223174e-01
 106,     7.6881,     15.000,    1.525496e-01
 107,     7.6741,     15.000,    9.477676e-02
 108,     7.6619,     15.000,    1.361228e-01
 109,     7.6488,     15.000,    7.898917e-02
 110,     7.6374,     14.297,    7.767557e-02
 111,     7.6296,     15.000,    1.235108e-01
 112,     7.6226,     15.000,    8.665206e-02
 113,     7.6138,     15.000,    9.735060e-02
 114,     7.5929,     15.000,    9.409210e-02
 115,     7.5820,     13.504,    1.223201e-01
 116,     7.5674,     15.000,    1.159608e-01
 117,     7.5593,     12.229,    7.379980e-02
 118,     7.5508,     10.891,    1.166044e-01
 119,     7.5366,     15.000,    1.477079e-01
 120,     7.5266,     10.368,    7.182356e-02
 121,     7.5150,     11.258,    4.428191e-02
 122,     7.5068,     15.000,    9.612475e-02
 123,     7.4887,      8.663,    4.806210e-02
 124,     7.4806,     13.465,    7.674868e-02
 125,     7.4719,     15.000,    1.725406e-01
 126,     7.4620,     10.450,    7.303455e-02
 127,     7.4533,      1.953,    1.548154e-02
 128,     7.4454,     10.787,    8.925504e-02
 129,     7.4353,     14.378,    5.940555e-02
 130,     7.4244,     12.138,    9.620584e-02
 131,     7.4150,     10.376,    6.696583e-02
 132,     7.4086,      7.926,    4.271566e-02
 133,     7.3994,     15.000,    1.537500e-01
 134,     7.3863,     15.000,    1.132824e-01
 135,     7.3741,     15.000,    1.074041e-01
 136,     7.3603,     15.000,    1.198663e-01
 137,     7.3348,     15.000,    1.206105e-01
 138,     7.3252,     15.000,    1.042504e-01
 139,     7.3145,     15.000,    8.711714e-02
 140,     7.3057,     15.000,    1.025463e-01
 141,     7.2962,     15.000,    1.022465e-01
 142,     7.2815,     15.000,    1.348292e-01
 143,     7.2647,     15.000,    1.123712e-01
 144,     7.2431,     15.000,    1.307540e-01
 145,     7.2147,     15.000,    1.729491e-01
 146,     7.1932,     15.000,    1.429767e-01
 147,     7.1746,     15.000,    1.496507e-01
 148,     7.1553,     15.000,    1.775503e-01
 149,     7.1406,     14.945,    9.848756e-02
 150,     7.1251,     15.000,    7.277988e-02
 151,     7.1153,     15.000,    1.049873e-01
 152,     7.1044,     15.000,    1.073929e-01
 153,     7.0919,     15.000,    6.184597e-02
 154,     7.0798,      8.118,    1.170510e-01
 155,     7.0734,      7.851,    3.185006e-02
 156,     7.0600,     15.000,    6.542547e-02
 157,     7.0486,     15.000,    1.637261e-01
 158,     7.0288,     15.000,    1.219674e-01
 159,     7.0215,      6.701,    5.575384e-02
 160,     7.0167,     15.000,    8.365690e-02
 161,     7.0103,     14.208,    4.190155e-02
 162,     7.0023,     15.000,    1.362413e-01
 163,     6.9892,      3.250,    2.004687e-02
 164,     6.9810,     15.000,    1.048421e-01
 165,     6.9720,     15.000,    3.789009e-02
 166,     6.9603,     15.000,    1.626565e-01
 167,     6.9499,     15.000,    8.506259e-02
 168,     6.9385,     15.000,    1.125865e-01
 169,     6.9273,     14.588,    6.815252e-02
 170,     6.9177,     15.000,    1.429525e-01
 171,     6.8992,     15.000,    1.357324e-01
 172,     6.8863,     15.000,    1.542653e-01
 173,     6.8729,     15.000,    1.569685e-01
 174,     6.8505,     15.000,    1.327587e-01
 175,     6.8381,     15.000,    1.745063e-01
 176,     6.8237,     15.000,    1.618416e-01
 177,     6.8147,      9.834,    7.139867e-02
 178,     6.8081,     15.000,    1.075860e-01
 179,     6.7947,     15.000,    1.085759e-01
 180,     6.7840,     15.000,    7.114414e-02
 181,     6.7750,     15.000,    9.418733e-02
 182,     6.7673,     15.000,    8.679203e-02
 183,     6.7578,     11.827,    8.433152e-02
 184,     6.7472,     11.080,    5.581746e-02
 185,     6.7368,     15.000,    1.514371e-01
 186,     6.7182,     13.599,    1.044589e-01
 187,     6.7126,      7.531,    5.989474e-02
 188,     6.7075,      4.281,    3.840054e-02
 189,     6.7020,      2.935,    2.278440e-02
 190,     6.6960,     15.000,    1.251491e-01
 191,     6.6756,     15.000,    1.342197e-01
 192,     6.6572,     15.000,    1.127895e-01
 193,     6.6428,     15.000,    1.265852e-01
 194,     6.6328,      2.168,    1.655110e-02
 195,     6.6265,     10.364,    6.411511e-02
 196,     6.6197,      9.145,    7.001838e-02
 197,     6.6112,      3.803,    2.316556e-02
 198,     6.6026,     15.000,    1.497780e-01
 199,     6.5856,     15.000,    1.493969e-01
 200,     6.5606,     15.000,    1.303143e-01
 201,     6.5313,     15.000,    1.060900e-01
 202,     6.5157,     15.000,    1.144502e-01
 203,     6.4987,     15.000,    1.027514e-01
 204,     6.4870,     15.000,    1.455350e-01
 205,     6.4568,     15.000,    1.666855e-01
 206,     6.4441,     15.000,    1.676469e-01
 207,     6.4331,     15.000,    1.110418e-01
 208,     6.4208,     15.000,    1.729590e-01
 209,     6.3964,     15.000,    1.915411e-01
 210,     6.3803,     15.000,    1.690979e-01
 211,     6.3643,     15.000,    2.546295e-01
 212,     6.3544,     15.000,    7.272504e-02
 213,     6.3434,     15.000,    5.664151e-02
 214,     6.3340,     13.547,    9.437434e-02
 215,     6.3241,     15.000,    9.440212e-02
 216,     6.3103,     15.000,    1.488346e-01
 217,     6.2978,     15.000,    1.213035e-01
 218,     6.2923,      8.285,    4.027230e-02
 219,     6.2834,      5.623,    4.672229e-02
 220,     6.2685,     13.240,    5.977665e-02
 221,     6.2610,      6.786,    3.871439e-02
 222,     6.2557,     15.000,    1.273311e-01
 223,     6.2448,     13.730,    1.398976e-01
 224,     6.2341,     13.851,    1.630602e-01
 225,     6.2219,     13.645,    1.014078e-01
 226,     6.2159,     13.559,    1.088048e-01
 227,     6.2098,     13.855,    1.096410e-01
 228,     6.2016,     13.594,    1.397764e-01
 229,     6.1878,     15.000,    1.209206e-01
 230,     6.1749,     15.000,    1.793734e-01
 231,     6.1633,     15.000,    1.179458e-01
 232,     6.1550,     15.000,    9.708378e-02
 233,     6.1492,      8.788,    8.935747e-02
 234,     6.1364,     13.457,    1.043417e-01
 235,     6.1232,     15.000,    7.368065e-02
 236,     6.1098,     15.000,    9.667476e-02
 237,     6.1036,     12.970,    3.876526e-02
 238,     6.0938,     15.000,    1.389830e-01
 239,     6.0773,     15.000,    1.530228e-01
 240,     6.0633,     15.000,    9.272525e-02
 241,     6.0529,     15.000,    1.258089e-01
 242,     6.0414,     15.000,    1.538278e-01
 243,     6.0259,     15.000,    1.588056e-01
 244,     6.0091,     15.000,    1.267439e-01
 245,     5.9963,     15.000,    1.270797e-01
 246,     5.9700,     15.000,    1.480941e-01
 247,     5.9570,     15.000,    1.440389e-01
 248,     5.9352,     15.000,    1.454975e-01
 249,     5.9137,     15.000,    1.546233e-01
 250,     5.8996,     15.000,    1.826968e-01
 251,     5.8694,     15.000,    1.698297e-01
 252,     5.8462,     14.498,    1.148769e-01
 253,     5.8388,     11.133,    4.966375e-02
 254,     5.8263,     15.000,    1.393509e-01
 255,     5.8153,     15.000,    9.364391e-02
 256,     5.8039,     15.000,    1.246989e-01
 257,     5.7925,      7.987,    9.130501e-02
 258,     5.7856,      7.189,    7.388410e-02
 259,     5.7809,      5.458,    4.501084e-02
 260,     5.7767,     11.168,    8.238052e-02
 261,     5.7666,     13.286,    1.033322e-01
 262,     5.7536,      9.993,    4.557385e-02
 263,     5.7474,      7.442,    3.265096e-02
 264,     5.7404,     13.404,    1.340796e-01
 265,     5.7283,     13.316,    9.468942e-02
 266,     5.7187,     14.257,    8.431242e-02
 267,     5.7073,     10.130,    6.774475e-02
 268,     5.7019,     11.645,    4.005251e-02
 269,     5.6904,     15.000,    1.053854e-01
 270,     5.6766,     15.000,    8.623251e-02
 271,     5.6656,      7.230,    4.714180e-02
 272,     5.6577,     15.000,    1.651788e-01
 273,     5.6430,     15.000,    1.609235e-01
 274,     5.6289,     15.000,    2.028677e-01
 275,     5.6074,     15.000,    1.266577e-01
 276,     5.5944,     15.000,    1.351205e-01
 277,     5.5834,     14.987,    1.571080e-01
 278,     5.5677,     15.000,    1.566665e-01
 279,     5.5536,     10.056,    6.416366e-02
 280,     5.5484,      1.824,    1.061049e-02
 281,     5.5453,      6.335,    5.523865e-02
 282,     5.5390,      6.898,    5.360478e-02
 283,     5.5258,     15.000,    1.529103e-01
 284,     5.5103,     15.000,    1.414541e-01
 285,     5.5004,     15.000,    9.799232e-02
 286,     5.4869,     15.000,    8.819462e-02
 287,     5.4810,      8.047,    6.604612e-02
 288,     5.4703,     15.000,    1.429491e-01
 289,     5.4544,     15.000,    1.131751e-01
 290,     5.4425,     13.380,    1.027489e-01
 291,     5.4315,     15.000,    1.185703e-01
 292,     5.4221,     15.000,    1.067415e-01
 293,     5.4140,     14.809,    8.197333e-02
 294,     5.4039,      8.742,    7.221548e-02
 295,     5.3947,      5.029,    3.490475e-02
 296,     5.3906,     12.940,    1.265192e-01
 297,     5.3784,     12.932,    9.392093e-02
 298,     5.3716,     10.030,    6.779118e-02
 299,     5.3573,     15.000,    8.082920e-02
 300,     5.3475,     15.000,    1.614715e-01
 301,     5.3318,     15.000,    9.914352e-02
 302,     5.3183,     14.690,    9.414292e-02
 303,     5.3064,     15.000,    1.273974e-01
 304,     5.2991,     15.000,    8.327192e-02
 305,     5.2863,     15.000,    8.967340e-02
 306,     5.2731,     15.000,    1.608416e-01
 307,     5.2652,     10.720,    4.304634e-02
 308,     5.2530,     15.000,    1.395430e-01
 309,     5.2366,     15.000,    9.701204e-02
 310,     5.2253,      7.980,    7.273617e-02
 311,     5.2204,     12.455,    9.586427e-02
 312,     5.2120,      5.924,    6.041124e-02
 313,     5.2036,     14.230,    8.436992e-02
 314,     5.1964,      6.635,    2.933876e-02
 315,     5.1892,     10.585,    9.077685e-02
 316,     5.1801,     14.665,    7.554591e-02
 317,     5.1731,     15.000,    1.199697e-01
 318,     5.1614,     15.000,    1.276589e-01
 319,     5.1539,     15.000,    5.928451e-02
 320,     5.1371,     15.000,    1.615076e-01
 321,     5.1206,     14.811,    1.352284e-01
 322,     5.1124,     15.000,    1.504971e-01
 323,     5.1005,     15.000,    1.112413e-01
 324,     5.0925,     15.000,    9.666662e-02
 325,     5.0824,      6.584,    4.064566e-02
 326,     5.0759,     15.000,    1.188677e-01
 327,     5.0668,     15.000,    1.716236e-01
 328,     5.0529,     14.952,    1.385010e-01
 329,     5.0445,     15.000,    1.065044e-01
 330,     5.0327,     15.000,    8.592711e-02
 331,     5.0191,     15.000,    1.381007e-01
 332,     5.0028,     15.000,    1.355303e-01
 333,     4.9915,      2.899,    2.795690e-02
 334,     4.9822,     10.932,    1.228799e-01
 335,     4.9749,     10.280,    9.725743e-02
 336,     4.9707,      0.256,    8.665301e-03
 337,     4.9637,     12.936,    1.268183e-01
 338,     4.9557,     15.000,    6.596910e-02
 339,     4.9396,     15.000,    1.449464e-01
 340,     4.9274,     12.691,    4.622521e-02
 341,     4.9212,     11.231,    1.212388e-01
 342,     4.9147,     14.722,    1.484250e-01
 343,     4.9044,     14.714,    1.082722e-01
 344,     4.8950,     10.537,    6.891416e-02
 345,     4.8857,     15.000,    9.304222e-02
 346,     4.8798,     15.000,    7.378299e-02
 347,     4.8681,      5.268,    4.016926e-02
 348,     4.8632,      5.927,    6.051691e-02
 349,     4.8569,      4.559,    3.306895e-02
 350,     4.8442,     15.000,    1.185575e-01
 351,     4.8326,     15.000,    1.196651e-01
 352,     4.8186,     15.000,    9.351894e-02
 353,     4.7893,     14.901,    1.421663e-01
 354,     4.7784,     10.211,    7.190024e-01
 355,     4.7682,     15.000,    2.105532e-01
 356,     4.7595,     15.000,    1.416727e-01
 357,     4.7448,     15.000,    1.103098e-01
 358,     4.7348,     15.000,    1.956721e-01
 359,     4.7226,     15.000,    1.251671e-01
 360,     4.7115,     13.343,    1.197155e-01
 361,     4.7060,      8.543,    8.156336e-02
 362,     4.7015,      7.063,    6.252655e-02
 363,     4.6897,     11.700,    9.754225e-02
 364,     4.6836,      8.356,    5.841966e-02
 365,     4.6703,     15.000,    1.741570e-01
 366,     4.6588,     15.000,    1.643437e-01
 367,     4.6400,     15.000,    1.912844e-01
 368,     4.6305,     15.000,    3.227770e-01
 369,     4.6138,     15.000,    2.581127e-01
 370,     4.5953,     15.000,    1.771908e-01
 371,     4.5828,     15.000,    2.460160e-01
 372,     4.5731,     15.000,    9.644189e-02
 373,     4.5564,     15.000,    1.431555e-01
 374,     4.5426,     15.000,    1.042749e-01
 375,     4.5277,     15.000,    1.264064e-01
 376,     4.5209,      9.991,    8.684628e-02
 377,     4.5097,     15.000,    1.445520e-01
 378,     4.5004,     15.000,    1.421759e-01
 379,     4.4875,     15.000,    1.698020e-01
 380,     4.4722,     10.916,    7.827269e-02
 381,     4.4671,     15.000,    1.213456e-01
 382,     4.4474,     15.000,    1.578407e-01
 383,     4.4395,     15.000,    1.776271e-01
 384,     4.4237,     15.000,    1.440888e-01
 385,     4.4120,     15.000,    1.962525e-01
 386,     4.3932,     15.000,    2.000094e-01
 387,     4.3827,     15.000,    1.642117e-01
 388,     4.3645,     15.000,    1.064821e-01
 389,     4.3461,     15.000,    1.002027e-01
 390,     4.3375,      6.927,    2.782279e-02
 391,     4.3329,     10.548,    6.334788e-02
 392,     4.3249,     13.765,    9.243932e-02
 393,     4.3197,     11.210,    8.208673e-02
 394,     4.3118,     14.925,    6.072622e-02
 395,     4.3010,     15.000,    1.290006e-01
 396,     4.2934,      7.368,    5.991590e-02
 397,     4.2906,      7.990,    5.556590e-02
 398,     4.2820,      4.772,    4.267829e-02
 399,     4.2793,      5.550,    5.736173e-02
 400,     4.2744,      9.134,    4.805630e-02
 401,     4.2681,     13.559,    1.097810e-01
 402,     4.2611,      9.421,    7.971684e-02
 403,     4.2548,      9.687,    5.563471e-02
 404,     4.2409,     12.223,    8.601703e-02
 405,     4.2315,     12.283,    1.063652e-01
 406,     4.2242,      2.692,    2.596699e-02
 407,     4.2195,      7.133,    3.990368e-02
 408,     4.2055,     15.000,    1.202090e-01
 409,     4.1941,     15.000,    1.312892e-01
 410,     4.1814,     15.000,    8.395786e-02
 411,     4.1750,      8.548,    2.437088e-01
 412,     4.1680,      8.169,    2.095736e-01
 413,     4.1639,      7.459,    1.950957e-01
 414,     4.1564,      9.158,    2.115724e-01
 415,     4.1491,     15.000,    1.167284e-01
 416,     4.1403,     15.000,    1.360750e-01
 417,     4.1296,     15.000,    1.182039e-01
 418,     4.1134,     15.000,    1.358676e-01
 419,     4.1021,     15.000,    1.058649e-01
 420,     4.0947,     15.000,    1.367420e-01
 421,     4.0789,     15.000,    1.313875e-01
 422,     4.0694,     15.000,    7.688174e-02
 423,     4.0589,     15.000,    1.451551e-01
 424,     4.0530,      7.388,    5.535590e-02
 425,     4.0479,     10.000,    5.552467e-02
 426,     4.0341,      7.147,    5.107399e-02
 427,     4.0268,     15.000,    1.729474e-01
 428,     4.0136,      9.847,    1.031393e-01
 429,     3.9896,      7.081,    2.398855e+00
 430,     3.9851,      8.072,    2.965603e+00
 431,     3.9748,      5.813,    3.567574e+00
 432,     3.9734,      2.470,    1.399564e+00
 433,     3.9703,      3.523,    2.243187e+00
