index,   freq_ppm,   decay_hz, amplitude
   1,     8.9868,     15.000,    7.797279e-02
   2,     8.9761,     15.000,    1.569123e-01
   3,     8.9573,     15.000,    1.106996e-01
   4,     8.9493,     15.000,    1.553989e-01
   5,     8.9335,     15.000,    1.388643e-01
   6,     8.9244,      9.096,    7.294947e-02
   7,     8.9105,     15.000,    1.064439e-01
   8,     8.9028,      7.769,    2.866252e-02
   9,     8.8947,     15.000,    1.122494e-01
  10,     8.8794,     15.000,    9.675314e-02
  11,     8.8663,     15.000,    1.639069e-01
  12,     8.8559,     15.000,    1.095666e-01
  13,     8.8400,     15.000,    1.130261e-01
  14,     8.8315,     15.000,    1.527051e-01
  15,     8.8145,     15.000,    1.571490e-01
  16,     8.8070,      7.780,    7.188399e-02
  17,     8.7966,     15.000,    6.483147e-02
  18,     8.7903,      8.147,    9.192526e-02
  19,     8.7813,     15.000,    1.604174e-01
  20,     8.7748,      7.268,    6.664077e-02
  21,     8.7602,     15.000,    1.156538e-01
  22,     8.7440,     15.000,    1.111874e-01
  23,     8.7304,      6.183,    5.492101e-02
  24,     8.7229,     15.000,    9.046167e-02
  25,     8.7143,     15.000,    7.878965e-02
  26,     8.7015,     15.000,    1.373208e-01
  27,     8.6955,     11.492,    5.695374e-02
  28,     8.6852,     11.588,    7.774010e-02
  29,     8.6790,     12.960,    7.981373e-02
  30,     8.6720,     15.000,    1.500860e-01
  31,     8.6620,      5.971,    3.713139e-02
  32,     8.6557,      5.745,    4.080871e-02
  33,     8.6481,     15.000,    1.172947e-01
  34,     8.6365,     15.000,    1.153319e-01
  35,     8.6253,     14.855,    9.349669e-02
  36,     8.6139,     15.000,    1.057962e-01
  37,     8.6045,     15.000,    4.347416e-02
  38,     8.5943,      8.697,    8.001906e-02
  39,     8.5818,     15.000,    1.122687e-01
  40,     8.5739,     15.000,    9.680526e-02
  41,     8.5641,     15.000,    3.142595e-01
  42,     8.5565,     15.000,    1.515611e-01
  43,     8.5454,     15.000,    1.598943e-01
  44,     8.5375,     15.000,    1.312322e-01
  45,     8.5279,     15.000,    2.122376e-01
  46,     8.5098,     15.000,    1.729591e-01
  47,     8.5010,     15.000,    1.519838e-01
  48,     8.4467,      2.919,    2.962450e+00
  49,     8.4455,      1.487,    3.428598e+00
  50,     8.4441,      3.874,    3.550057e+00
  51,     8.4425,     11.545,    2.390249e+00
  52,     8.4328,     15.000,    4.186375e-01
  53,     8.4243,     15.000,    4.003279e-01
  54,     8.4203,     13.983,    1.826410e-01
  55,     8.4112,     13.815,    1.048084e-01
  56,     8.4032,     14.193,    1.487891e-01
  57,     8.3905,     14.844,    1.822957e-01
  58,     8.3708,     14.783,    1.481783e-01
  59,     8.3565,     15.000,    7.030351e-02
  60,     8.3393,     15.000,    1.084745e-01
  61,     8.3289,     15.000,    1.073065e-01
  62,     8.3197,     13.845,    2.272871e-01
  63,     8.3048,     15.000,    5.736466e-02
  64,     8.2913,     10.039,    7.596936e-02
  65,     8.2822,     10.947,    8.609215e-02
  66,     8.2746,      6.140,    3.150199e-02
  67,     8.2697,     15.000,    9.928367e-02
  68,     8.2606,      9.797,    6.172435e-02
  69,     8.2576,      5.840,    5.200424e-02
  70,     8.2473,     15.000,    1.045524e-01
  71,     8.2384,     15.000,    8.852378e-02
  72,     8.2337,      4.882,    2.425800e-02
  73,     8.2256,      9.742,    9.598561e-02
  74,     8.2145,     10.810,    5.302336e-02
  75,     8.2027,     15.000,    1.137219e-01
  76,     8.1953,     15.000,    1.044350e-01
  77,     8.1887,     15.000,    1.007228e-01
  78,     8.1780,     15.000,    1.567169e-01
  79,     8.1633,     12.495,    8.304868e-02
  80,     8.1439,     15.000,    9.902835e-02
  81,     8.1188,     15.000,    1.267492e-01
  82,     8.1050,     15.000,    1.625770e-01
  83,     8.0809,     15.000,    1.492301e-01
  84,     8.0614,     15.000,    9.512771e-02
  85,     8.0315,     15.000,    1.257645e-01
  86,     8.0136,     15.000,    1.326440e-01
  87,     8.0029,     11.413,    9.360971e-02
  88,     7.9961,     15.000,    7.284618e-02
  89,     7.9879,     12.237,    8.016709e-02
  90,     7.9753,     15.000,    7.435893e-02
  91,     7.9622,     15.000,    1.439872e-01
  92,     7.9508,     15.000,    7.986141e-02
  93,     7.9435,     15.000,    8.521841e-02
  94,     7.9248,     15.000,    1.532352e-01
  95,     7.9156,     15.000,    1.574142e-01
  96,     7.9003,     15.000,    7.617288e-02
  97,     7.8876,     15.000,    1.336147e-01
  98,     7.8701,     15.000,    1.123982e-01
  99,     7.8623,     12.377,    8.723173e-02
 100,     7.8596,      3.918,    4.077474e-02
 101,     7.8549,      3.858,    2.561368e-02
 102,     7.8477,      9.360,    5.892844e-02
 103,     7.8411,     15.000,    1.408663e-01
 104,     7.8323,      4.080,    3.688848e-02
 105,     7.8264,     11.847,    6.877580e-02
 106,     7.8144,      7.925,    4.126088e-02
 107,     7.8061,      9.249,    6.553458e-02
 108,     7.7943,     15.000,    4.620367e-01
 109,     7.7754,     15.000,    1.351422e-01
 110,     7.7648,     15.000,    1.427558e-01
 111,     7.7567,     15.000,    1.190096e-01
 112,     7.7430,     15.000,    9.482593e-02
 113,     7.7305,     15.000,    1.464774e-01
 114,     7.7169,     15.000,    1.595799e-01
 115,     7.7100,     15.000,    1.309832e-01
 116,     7.6982,     15.000,    1.501557e-01
 117,     7.6868,     15.000,    1.883692e-01
 118,     7.6741,     15.000,    1.473955e-01
 119,     7.6664,     15.000,    1.560409e-01
 120,     7.6509,     15.000,    1.853614e-01
 121,     7.6399,     15.000,    1.793297e-01
 122,     7.6259,     15.000,    2.090531e-01
 123,     7.6106,     15.000,    1.572197e-01
 124,     7.6008,     15.000,    1.409484e-01
 125,     7.5883,     15.000,    1.509258e-01
 126,     7.5682,     15.000,    1.077955e-01
 127,     7.5533,     15.000,    1.138078e-01
 128,     7.5425,     15.000,    1.451309e-01
 129,     7.5215,     15.000,    1.304817e-01
 130,     7.4961,     15.000,    1.319093e-01
 131,     7.4821,     15.000,    1.170455e-01
 132,     7.4734,     15.000,    1.874530e-01
 133,     7.4607,     15.000,    1.486391e-01
 134,     7.4400,     15.000,    1.866689e-01
 135,     7.4071,     15.000,    1.399287e-01
 136,     7.3914,     15.000,    1.572178e-01
 137,     7.3694,     15.000,    2.039314e-01
 138,     7.3546,     15.000,    1.498612e-01
 139,     7.3306,     15.000,    1.131588e-01
 140,     7.3161,     15.000,    1.645180e-01
 141,     7.2862,     15.000,    1.738069e-01
 142,     7.2648,     15.000,    1.297074e-01
 143,     7.2500,     15.000,    1.584418e-01
 144,     7.2359,     15.000,    1.184010e-01
 145,     7.2195,     15.000,    1.210381e-01
 146,     7.2098,     15.000,    8.965178e-02
 147,     7.1941,     15.000,    1.436086e-01
 148,     7.1778,     15.000,    1.034724e-01
 149,     7.1674,     15.000,    8.521046e-02
 150,     7.1592,     15.000,    9.773596e-02
 151,     7.1512,     15.000,    1.243939e-01
 152,     7.1418,     15.000,    4.559582e-02
 153,     7.1368,      5.067,    4.209306e-02
 154,     7.1293,      9.707,    6.708012e-02
 155,     7.1191,     15.000,    1.363108e-01
 156,     7.1042,     15.000,    1.251866e-01
 157,     7.0961,     15.000,    1.475070e-01
 158,     7.0795,     15.000,    2.683103e-01
 159,     7.0655,     15.000,    1.031057e-01
 160,     7.0514,     15.000,    4.684920e-01
 161,     7.0200,     15.000,    1.396041e-01
 162,     6.9937,     15.000,    1.515253e-01
 163,     6.9736,      8.450,    5.233178e-02
 164,     6.9706,     10.330,    9.745026e-02
 165,     6.9633,      9.517,    8.599334e-02
 166,     6.9574,      5.639,    6.023273e-02
 167,     6.9497,     15.000,    1.505105e-01
 168,     6.9382,     15.000,    1.250893e-01
 169,     6.9244,     15.000,    1.955856e-01
 170,     6.9166,     15.000,    1.359832e-01
 171,     6.8982,     15.000,    1.712353e-01
 172,     6.8885,      9.370,    8.133159e-02
 173,     6.8808,     15.000,    1.093112e-01
 174,     6.8693,     15.000,    9.967277e-02
 175,     6.8627,     15.000,    1.565426e-01
 176,     6.8534,     15.000,    8.298992e-02
 177,     6.8352,     15.000,    1.437746e-01
 178,     6.8198,     15.000,    1.870142e-01
 179,     6.8104,     15.000,    1.125799e-01
 180,     6.8021,     15.000,    1.478811e-01
 181,     6.7935,     13.397,    8.674298e-02
 182,     6.7843,     15.000,    1.567443e-01
 183,     6.7654,     15.000,    1.804032e-01
 184,     6.7504,     15.000,    1.367581e-01
 185,     6.7387,     15.000,    1.222853e-01
 186,     6.7295,     15.000,    1.147674e-01
 187,     6.7213,     15.000,    1.404146e-01
 188,     6.7094,     14.778,    5.808148e-02
 189,     6.6965,     13.515,    7.678193e-02
 190,     6.6860,     15.000,    7.486700e-02
 191,     6.6792,      8.171,    6.177191e-02
 192,     6.6676,     15.000,    1.240179e-01
 193,     6.6530,     15.000,    1.136861e-01
 194,     6.6317,     15.000,    6.647636e-02
 195,     6.6219,     15.000,    8.635938e-02
 196,     6.6065,     15.000,    7.674410e-02
 197,     6.5996,     13.863,    9.743714e-02
 198,     6.5905,     15.000,    1.416127e-01
 199,     6.5724,     15.000,    9.090436e-02
 200,     6.5589,     15.000,    1.241590e-01
 201,     6.5489,     15.000,    6.826769e-02
 202,     6.5391,     15.000,    9.855553e-02
 203,     6.5194,     15.000,    1.406755e-01
 204,     6.5086,     15.000,    9.630003e-02
 205,     6.4975,     15.000,    1.694783e-01
 206,     6.4720,     15.000,    1.252701e-01
 207,     6.4631,     15.000,    1.185741e-01
 208,     6.4347,     15.000,    1.112722e-01
 209,     6.4195,     15.000,    1.353784e-01
 210,     6.4059,     15.000,    6.082660e-02
 211,     6.3946,     15.000,    6.607201e-02
 212,     6.3846,     13.940,    1.171554e-01
 213,     6.3702,      9.544,    7.649406e-02
 214,     6.3625,     11.987,    1.677736e-01
 215,     6.3520,     15.000,    9.889728e-02
 216,     6.3428,     15.000,    1.553541e-01
 217,     6.3290,     15.000,    9.649888e-02
 218,     6.3085,     15.000,    1.544635e-01
 219,     6.2789,     15.000,    1.133922e-01
 220,     6.2691,     15.000,    1.090845e-01
 221,     6.2578,     13.897,    1.189293e-01
 222,     6.2478,     15.000,    1.045380e-01
 223,     6.2311,     15.000,    1.716337e-01
 224,     6.2166,     15.000,    1.115980e-01
 225,     6.2051,     15.000,    1.129583e-01
 226,     6.1982,      2.512,    1.031340e-02
 227,     6.1935,     12.300,    1.377239e-01
 228,     6.1867,      7.061,    3.838097e-02
 229,     6.1779,      9.270,    6.434329e-02
 230,     6.1643,     15.000,    1.887952e-01
 231,     6.1453,     15.000,    2.303171e-01
 232,     6.1330,     15.000,    1.800338e-01
 233,     6.1181,     15.000,    1.953344e-01
 234,     6.0997,     15.000,    2.316740e-01
 235,     6.0702,     15.000,    2.431979e-01
 236,     6.0543,     15.000,    1.879291e-01
 237,     6.0375,     15.000,    1.234785e-01
 238,     6.0257,     15.000,    1.083066e-01
 239,     6.0155,     15.000,    7.937115e-02
 240,     6.0056,     15.000,    1.062377e-01
 241,     5.9899,      9.382,    1.201142e-01
 242,     5.9770,     15.000,    1.533974e-01
 243,     5.9661,     15.000,    1.347205e-01
 244,     5.9444,     15.000,    1.463558e-01
 245,     5.9218,     15.000,    1.624488e-01
 246,     5.9035,     15.000,    1.447906e-01
 247,     5.8918,     15.000,    1.142617e-01
 248,     5.8742,     14.712,    1.401198e-01
 249,     5.8666,      4.693,    2.014884e-02
 250,     5.8582,     15.000,    1.102990e-01
 251,     5.8507,      1.788,    1.853346e-02
 252,     5.8432,     15.000,    1.188123e-01
 253,     5.8340,     15.000,    8.852272e-02
 254,     5.8212,     15.000,    1.114270e-01
 255,     5.8090,     15.000,    1.522789e-01
 256,     5.7978,     15.000,    8.240228e-02
 257,     5.7818,     15.000,    1.379589e-01
 258,     5.7688,     14.528,    1.309901e-01
 259,     5.7604,      1.467,    1.376956e-02
 260,     5.7552,      9.895,    1.189342e-01
 261,     5.7476,      7.992,    3.832642e-02
 262,     5.7375,     10.111,    8.882728e-02
 263,     5.7255,     15.000,    1.459859e-01
 264,     5.7092,     15.000,    1.372470e-01
 265,     5.6991,     15.000,    1.095544e-01
 266,     5.6824,     15.000,    1.085499e-01
 267,     5.6735,     15.000,    1.420730e-01
 268,     5.6574,     15.000,    1.113401e-01
 269,     5.6450,     15.000,    1.182536e-01
 270,     5.6403,      5.610,    2.217410e-02
 271,     5.6357,      9.821,    8.947738e-02
 272,     5.6283,     15.000,    5.741941e-02
 273,     5.6170,      8.248,    4.127504e-02
 274,     5.6090,     15.000,    8.606581e-02
 275,     5.5992,     15.000,    7.469897e-02
 276,     5.5903,     15.000,    1.244358e-01
 277,     5.5827,     10.863,    9.506599e-02
 278,     5.5772,      5.773,    5.689184e-02
 279,     5.5709,     15.000,    1.460635e-01
 280,     5.5452,     15.000,    1.051984e-01
 281,     5.5354,     15.000,    7.072797e-02
 282,     5.5255,     15.000,    1.522804e-01
 283,     5.5055,     15.000,    5.170495e-02
 284,     5.4958,     11.486,    8.147289e-02
 285,     5.4866,     15.000,    1.138608e-01
 286,     5.4727,     15.000,    1.424437e-01
 287,     5.4647,     12.302,    6.034422e-02
 288,     5.4494,     15.000,    7.575403e-02
 289,     5.4349,     15.000,    1.148263e-01
 290,     5.4162,     15.000,    1.864785e-01
 291,     5.4007,     15.000,    1.526124e-01
 292,     5.3901,     15.000,    1.362079e-01
 293,     5.3842,     15.000,    1.095185e-01
 294,     5.3663,     15.000,    1.708561e-01
 295,     5.3531,     15.000,    1.394664e-01
 296,     5.3363,     15.000,    1.444751e-01
 297,     5.3200,     15.000,    1.220042e-01
 298,     5.3140,     15.000,    1.310277e-01
 299,     5.3044,      5.799,    4.808464e-02
 300,     5.2965,     15.000,    1.371144e-01
 301,     5.2763,     15.000,    1.680174e-01
 302,     5.2596,     15.000,    1.048785e-01
 303,     5.2506,     15.000,    1.289257e-01
 304,     5.2381,     15.000,    1.064533e-01
 305,     5.2272,     15.000,    1.865585e-01
 306,     5.2217,     11.682,    1.748140e-01
 307,     5.2166,     10.432,    6.788664e-02
 308,     5.2075,      9.253,    6.201515e-02
 309,     5.1984,     12.912,    1.104604e-01
 310,     5.1949,      9.336,    4.264354e-02
 311,     5.1864,      9.687,    6.707454e-02
 312,     5.1789,     15.000,    9.276100e-02
 313,     5.1650,     15.000,    1.077348e-01
 314,     5.1513,     15.000,    1.232442e-01
 315,     5.1432,     15.000,    7.033574e-02
 316,     5.1356,     15.000,    1.103800e-01
 317,     5.1179,     15.000,    1.397736e-01
 318,     5.1030,     15.000,    1.423267e-01
 319,     5.0787,     15.000,    1.292312e-01
 320,     5.0622,     15.000,    1.920349e-01
 321,     5.0519,     15.000,    1.557050e-01
 322,     5.0344,     15.000,    1.534902e-01
 323,     5.0121,     15.000,    6.502438e-02
 324,     5.0067,      8.894,    8.326978e-02
 325,     4.9958,     15.000,    1.005926e-01
 326,     4.9903,      7.041,    4.998240e-02
 327,     4.9852,      0.018,    7.332262e-03
 328,     4.9747,     15.000,    6.986117e-02
 329,     4.9640,     15.000,    8.058870e-02
 330,     4.9496,     15.000,    1.651267e-01
 331,     4.9343,     15.000,    1.021614e-01
 332,     4.9190,     14.110,    2.771087e-01
 333,     4.9146,     13.307,    2.805586e-01
 334,     4.9075,     15.000,    1.537612e-01
 335,     4.8980,     15.000,    8.775551e-02
 336,     4.8860,     15.000,    1.233117e-01
 337,     4.8670,     15.000,    1.440819e-01
 338,     4.8500,     15.000,    1.067172e-01
 339,     4.8385,     13.447,    1.569567e-01
 340,     4.8312,     15.000,    2.261275e-01
 341,     4.8254,     15.000,    1.879292e-01
 342,     4.8158,     15.000,    2.885466e-01
 343,     4.8063,     15.000,    2.257897e-01
 344,     4.7944,     15.000,    1.972513e-01
 345,     4.7888,     15.000,    2.590799e-01
 346,     4.7768,      1.540,    1.958646e-01
 347,     4.7750,      6.611,    1.959992e-01
 348,     4.7665,     15.000,    5.208203e-01
 349,     4.7563,     15.000,    4.141048e-01
 350,     4.7449,     15.000,    3.212057e-01
 351,     4.7349,     15.000,    3.581312e-01
 352,     4.7237,     15.000,    3.533541e-01
 353,     4.7085,     15.000,    1.791211e-01
 354,     4.6868,     15.000,    1.562108e-01
 355,     4.6748,     15.000,    1.368665e-01
 356,     4.6508,     15.000,    8.443192e-02
 357,     4.6412,     14.861,    2.689210e-01
 358,     4.6356,      8.572,    8.537402e-02
 359,     4.6314,      8.230,    1.634789e-01
 360,     4.6251,     11.354,    8.568811e-02
 361,     4.6209,      4.362,    4.600723e-02
 362,     4.6137,      7.477,    8.344550e-02
 363,     4.6046,     11.884,    1.156350e-01
 364,     4.5960,     15.000,    1.037108e-01
 365,     4.5792,     15.000,    1.361750e-01
 366,     4.5654,     15.000,    1.348342e-01
 367,     4.5564,     15.000,    1.209279e-01
 368,     4.5488,     15.000,    1.068528e-01
 369,     4.5404,     15.000,    5.478449e-02
 370,     4.5274,      9.505,    7.847610e-02
 371,     4.5221,     12.724,    1.206236e-01
 372,     4.5141,      8.266,    4.493890e-02
 373,     4.5111,      4.824,    4.148068e-02
 374,     4.4995,     15.000,    1.412407e-01
 375,     4.4882,     14.678,    6.925651e-02
 376,     4.4766,     15.000,    7.788911e-02
 377,     4.4695,      9.135,    5.820135e-02
 378,     4.4630,      8.776,    7.294396e-02
 379,     4.4556,      6.901,    5.140796e-02
 380,     4.4485,     14.476,    1.309575e-01
 381,     4.4404,     12.744,    8.370213e-02
 382,     4.4308,     15.000,    1.679901e-01
 383,     4.4261,      2.191,    1.049623e-02
 384,     4.4157,      8.518,    6.119728e-02
 385,     4.4099,      9.466,    8.714391e-02
 386,     4.4008,     10.258,    7.614678e-02
 387,     4.3911,     15.000,    1.042808e-01
 388,     4.3761,     15.000,    9.430724e-02
 389,     4.3636,     15.000,    1.677081e-01
 390,     4.3564,     15.000,    1.903589e-01
 391,     4.3410,     15.000,    2.046874e-01
 392,     4.3275,     15.000,    1.460405e-01
 393,     4.3192,      9.457,    6.139863e-02
 394,     4.3107,     15.000,    5.730710e-02
 395,     4.3011,     15.000,    1.371122e-01
 396,     4.2840,     15.000,    1.551279e-01
 397,     4.2743,     15.000,    7.537813e-02
 398,     4.2623,     15.000,    8.550854e-02
 399,     4.2430,     15.000,    1.440805e-01
 400,     4.2282,     15.000,    1.491386e-01
 401,     4.2196,     15.000,    1.152844e-01
 402,     4.2128,     15.000,    8.171219e-02
 403,     4.2041,     15.000,    9.531943e-02
 404,     4.1895,     15.000,    7.899006e-02
 405,     4.1828,     12.558,    9.263321e-02
 406,     4.1732,     12.495,    8.549090e-02
 407,     4.1639,     15.000,    7.908856e-02
 408,     4.1565,     15.000,    1.645884e-01
 409,     4.1428,     15.000,    2.103079e-01
 410,     4.1262,     15.000,    1.683964e-01
 411,     4.1081,     15.000,    1.231152e-01
 412,     4.0998,     15.000,    1.440980e-01
 413,     4.0779,     15.000,    2.485294e-01
 414,     4.0696,      9.791,    1.044317e-01
 415,     4.0611,     15.000,    2.163308e-01
 416,     4.0490,     15.000,    1.339676e-01
 417,     4.0353,     11.809,    1.405208e-01
 418,     4.0277,     15.000,    1.757301e-01
 419,     4.0180,     15.000,    1.491797e-01
 420,     4.0101,     15.000,    2.758858e-01
 421,     3.9961,      6.159,    4.344839e+00
 422,     3.9904,      8.308,    8.503441e+00
 423,     3.9860,     11.231,    1.328966e+01
 424,     3.9812,      7.138,    5.134349e+00
 425,     3.9741,      7.593,    7.878339e+00
 426,     3.9697,      8.506,    9.532714e+00
 427,     3.9471,      4.495,    3.396039e+00
 428,     3.9456,      5.473,    3.091134e+00
 429,     3.9393,      8.228,    8.880956e+00
 430,     3.9312,      7.767,    3.633182e+00
 431,     3.9239,      8.292,    4.717466e+00
 432,     3.8924,     15.000,    3.989581e-01
 433,     3.8775,     13.638,    3.304089e-01
