index,   freq_ppm,   decay_hz, amplitude
   1,     8.9897,     15.000,    1.746293e-01
   2,     8.9546,     15.000,    1.768528e-01
   3,     8.9419,     15.000,    1.564513e-01
   4,     8.9222,     15.000,    1.763736e-01
   5,     8.9083,     15.000,    1.726711e-01
   6,     8.8908,     15.000,    1.654244e-01
   7,     8.8648,     15.000,    1.376049e-01
   8,     8.8452,     13.029,    1.247153e-01
   9,     8.8382,     10.150,    5.196912e-02
  10,     8.8325,     14.058,    1.085935e-01
  11,     8.8276,      9.270,    3.223839e-02
  12,     8.8197,     11.471,    9.055700e-02
  13,     8.8128,     15.000,    1.566277e-01
  14,     8.8037,     15.000,    1.163655e-01
  15,     8.7934,      6.497,    7.665088e-02
  16,     8.7891,     11.225,    9.882916e-02
  17,     8.7818,     14.883,    1.156268e-01
  18,     8.7706,     15.000,    1.069593e-01
  19,     8.7642,     12.008,    9.381319e-02
  20,     8.7574,      3.779,    3.612665e-02
  21,     8.7481,     15.000,    1.392237e-01
  22,     8.7397,     15.000,    1.281395e-01
  23,     8.7294,      5.075,    4.956074e-02
  24,     8.7241,     14.206,    6.811437e-02
  25,     8.7176,     15.000,    1.544700e-01
  26,     8.7044,     15.000,    1.456228e-01
  27,     8.6970,      9.723,    2.964080e-02
  28,     8.6879,     15.000,    1.188167e-01
  29,     8.6790,     12.320,    6.654890e-02
  30,     8.6729,     15.000,    1.268584e-01
  31,     8.6636,     15.000,    8.863420e-02
  32,     8.6548,     14.855,    1.405491e-01
  33,     8.6390,     15.000,    1.022584e-01
  34,     8.6259,     12.254,    1.151878e-01
  35,     8.6204,      8.450,    6.265171e-02
  36,     8.6092,     15.000,    9.596433e-02
  37,     8.6030,      4.624,    2.701077e-02
  38,     8.5971,     11.558,    1.188979e-01
  39,     8.5863,     15.000,    1.143124e-01
  40,     8.5757,     15.000,    1.423187e-01
  41,     8.5635,     15.000,    2.842477e-01
  42,     8.5505,     15.000,    1.867814e-01
  43,     8.5217,     15.000,    1.617268e-01
  44,     8.4477,      5.134,    2.601929e+00
  45,     8.4462,      3.030,    4.113447e+00
  46,     8.4447,      3.946,    4.395555e+00
  47,     8.4428,      7.617,    3.253303e+00
  48,     8.4395,     11.816,    2.509013e+00
  49,     8.4339,     15.000,    7.125617e-01
  50,     8.4217,     15.000,    3.052770e-01
  51,     8.4066,     15.000,    1.602318e-01
  52,     8.3905,     15.000,    1.697436e-01
  53,     8.3611,     15.000,    1.239141e-01
  54,     8.3426,     15.000,    9.325273e-02
  55,     8.3311,     15.000,    1.129639e-01
  56,     8.3218,     15.000,    2.172160e-01
  57,     8.3033,     15.000,    1.432526e-01
  58,     8.2874,     15.000,    1.501211e-01
  59,     8.2666,     15.000,    1.042309e-01
  60,     8.2553,     15.000,    2.270108e-01
  61,     8.2449,     15.000,    1.994931e-01
  62,     8.2272,     15.000,    1.238516e-01
  63,     8.2112,     15.000,    1.796335e-01
  64,     8.2002,     15.000,    9.195602e-02
  65,     8.1883,     15.000,    2.001362e-01
  66,     8.1723,     15.000,    8.605746e-02
  67,     8.1648,     15.000,    1.285436e-01
  68,     8.1538,      4.157,    4.183233e-02
  69,     8.1465,     12.451,    5.947642e-02
  70,     8.1414,     15.000,    1.506788e-01
  71,     8.1333,     12.388,    1.134337e-01
  72,     8.1180,     15.000,    1.197683e-01
  73,     8.1074,      8.201,    3.587324e-02
  74,     8.0997,     14.399,    1.152080e-01
  75,     8.0950,      9.057,    3.096539e-02
  76,     8.0909,     15.000,    1.369064e-01
  77,     8.0818,     15.000,    1.018403e-01
  78,     8.0679,     15.000,    1.273710e-01
  79,     8.0570,     15.000,    1.282030e-01
  80,     8.0476,     13.313,    1.264185e-01
  81,     8.0388,     11.966,    1.139041e-01
  82,     8.0261,     15.000,    1.130734e-01
  83,     8.0171,     15.000,    8.713852e-02
  84,     8.0068,     15.000,    1.212744e-01
  85,     7.9962,     15.000,    5.869078e-02
  86,     7.9831,     15.000,    1.751448e-01
  87,     7.9814,     15.000,    1.501383e-01
  88,     7.9708,     15.000,    6.591213e-02
  89,     7.9603,     15.000,    1.170531e-01
  90,     7.9497,     15.000,    7.287022e-02
  91,     7.9400,     15.000,    8.764796e-02
  92,     7.9191,     12.572,    9.463837e-02
  93,     7.9106,     15.000,    1.141388e-01
  94,     7.8971,     15.000,    8.848295e-02
  95,     7.8787,     15.000,    1.180813e-01
  96,     7.8585,     15.000,    1.703602e-01
  97,     7.8464,     15.000,    9.071935e-02
  98,     7.8278,      2.974,    2.399212e-02
  99,     7.8257,     15.000,    1.542957e+00
 100,     7.8201,     15.000,    1.279447e-01
 101,     7.8139,     13.147,    9.453177e-02
 102,     7.8027,     12.234,    1.003902e-01
 103,     7.7943,      9.865,    7.828032e-02
 104,     7.7811,     15.000,    1.745079e-01
 105,     7.7703,     15.000,    1.210045e-01
 106,     7.7565,     14.923,    9.759194e-02
 107,     7.7455,     15.000,    1.179002e-01
 108,     7.7342,     14.993,    1.415066e-01
 109,     7.7232,     15.000,    1.443392e-01
 110,     7.7173,      4.749,    9.224189e-03
 111,     7.7106,     15.000,    1.180176e-01
 112,     7.6992,      8.405,    5.704954e-02
 113,     7.6893,     15.000,    1.492055e-01
 114,     7.6847,      3.596,    2.296570e-02
 115,     7.6743,     15.000,    1.686282e-01
 116,     7.6573,     15.000,    1.643025e-01
 117,     7.6399,     15.000,    1.154029e-01
 118,     7.6286,     15.000,    1.021579e-01
 119,     7.6200,      8.807,    5.453162e-02
 120,     7.6102,     15.000,    8.585935e-02
 121,     7.5987,     15.000,    1.217929e-01
 122,     7.5858,     15.000,    1.032633e-01
 123,     7.5693,     15.000,    1.281964e-01
 124,     7.5536,     15.000,    1.652429e-01
 125,     7.5412,     15.000,    1.169848e-01
 126,     7.5295,     11.677,    1.191409e-01
 127,     7.5104,     15.000,    9.564663e-02
 128,     7.5019,     10.972,    4.808450e-02
 129,     7.4950,     15.000,    1.002105e-01
 130,     7.4862,     15.000,    9.892374e-02
 131,     7.4729,     15.000,    1.595310e-01
 132,     7.4596,     12.387,    5.307553e-02
 133,     7.4537,      7.401,    5.650608e-02
 134,     7.4484,      8.904,    9.316386e-02
 135,     7.4399,     15.000,    1.768813e-01
 136,     7.4335,      2.259,    2.592082e-02
 137,     7.4315,      3.122,    8.156791e-03
 138,     7.4266,      0.019,    7.523083e-03
 139,     7.4224,     14.898,    8.120071e-02
 140,     7.4168,     15.000,    9.814474e-02
 141,     7.4055,     15.000,    7.239918e-02
 142,     7.3951,     15.000,    1.489657e-01
 143,     7.3834,     14.942,    9.331737e-02
 144,     7.3720,     15.000,    1.750291e-01
 145,     7.3618,      8.661,    8.300164e-02
 146,     7.3471,     15.000,    2.118834e-01
 147,     7.3337,     15.000,    1.372346e-01
 148,     7.3230,     15.000,    1.208964e-01
 149,     7.3154,     15.000,    1.552552e-01
 150,     7.2986,     15.000,    1.455909e-01
 151,     7.2829,     15.000,    1.522212e-01
 152,     7.2645,     15.000,    1.892869e-01
 153,     7.2500,     15.000,    1.503519e-01
 154,     7.2398,     15.000,    1.423883e-01
 155,     7.2206,     15.000,    1.535028e-01
 156,     7.2078,     15.000,    1.049152e-01
 157,     7.2000,     15.000,    1.247615e-01
 158,     7.1896,      7.867,    3.797380e-02
 159,     7.1842,     14.569,    1.485651e-01
 160,     7.1780,      4.987,    4.975837e-02
 161,     7.1688,     15.000,    1.238591e-01
 162,     7.1599,     15.000,    7.800242e-02
 163,     7.1500,     15.000,    1.274102e-01
 164,     7.1379,     15.000,    4.389947e-02
 165,     7.1293,     15.000,    1.309960e-01
 166,     7.1167,     11.545,    8.495769e-02
 167,     7.1089,     14.710,    1.287414e-01
 168,     7.0993,     15.000,    9.455183e-02
 169,     7.0806,     15.000,    1.127479e-01
 170,     7.0675,     15.000,    1.499314e+00
 171,     7.0594,     15.000,    2.241717e-01
 172,     7.0411,     15.000,    1.318392e-01
 173,     7.0216,     15.000,    1.490132e-01
 174,     6.9939,     15.000,    1.431781e-01
 175,     6.9850,     13.357,    8.534151e-02
 176,     6.9796,      0.623,    1.009907e-02
 177,     6.9737,     15.000,    1.591052e-01
 178,     6.9677,      2.523,    2.278394e-02
 179,     6.9606,     14.696,    1.006574e-01
 180,     6.9496,     15.000,    1.415345e-01
 181,     6.9367,     15.000,    1.022552e-01
 182,     6.9183,     15.000,    1.200422e-01
 183,     6.9065,     15.000,    1.031971e-01
 184,     6.8907,     15.000,    9.180017e-02
 185,     6.8801,     15.000,    1.240390e-01
 186,     6.8719,     15.000,    1.026591e-01
 187,     6.8591,     15.000,    8.997580e-02
 188,     6.8514,     13.133,    9.739341e-02
 189,     6.8450,     10.076,    1.045797e-01
 190,     6.8397,      4.322,    3.390218e-02
 191,     6.8308,     15.000,    7.652042e-02
 192,     6.8201,     14.909,    9.698842e-02
 193,     6.8078,     15.000,    1.327148e-01
 194,     6.7969,     15.000,    8.431301e-02
 195,     6.7807,     10.482,    7.609170e-02
 196,     6.7673,     15.000,    9.793554e-02
 197,     6.7593,     12.156,    8.171101e-02
 198,     6.7518,     13.783,    6.547783e-02
 199,     6.7429,     14.849,    1.404027e-01
 200,     6.7336,     12.453,    9.061435e-02
 201,     6.7236,     12.021,    7.553406e-02
 202,     6.7164,      7.753,    6.429490e-02
 203,     6.7109,      4.892,    2.102373e-02
 204,     6.7075,      5.335,    3.744426e-02
 205,     6.6974,      9.228,    1.277051e-01
 206,     6.6860,     13.450,    8.017522e-02
 207,     6.6779,     15.000,    1.266553e-01
 208,     6.6717,      6.973,    4.370283e-02
 209,     6.6646,     15.000,    1.270630e-01
 210,     6.6551,     11.308,    9.666771e-02
 211,     6.6484,     15.000,    9.530181e-02
 212,     6.6424,      8.952,    7.508454e-02
 213,     6.6342,     13.952,    1.137014e-01
 214,     6.6272,      5.423,    3.691814e-02
 215,     6.6164,     12.360,    1.359343e-01
 216,     6.6112,      8.475,    6.771214e-02
 217,     6.6054,      7.776,    7.068344e-02
 218,     6.5978,     14.572,    1.059281e-01
 219,     6.5885,     15.000,    1.841659e-01
 220,     6.5794,     15.000,    1.220794e-01
 221,     6.5695,     15.000,    1.195333e-01
 222,     6.5604,     10.802,    7.857154e-02
 223,     6.5549,     15.000,    1.268161e-01
 224,     6.5446,     15.000,    7.964266e-02
 225,     6.5371,      5.161,    3.846074e-02
 226,     6.5281,     15.000,    1.342165e-01
 227,     6.5150,     15.000,    1.295994e-01
 228,     6.5015,     15.000,    1.379011e-01
 229,     6.4901,     15.000,    1.361926e-01
 230,     6.4757,     15.000,    1.314330e-01
 231,     6.4650,     15.000,    1.154438e-01
 232,     6.4563,     15.000,    1.440999e-01
 233,     6.4449,     15.000,    1.639556e-01
 234,     6.4327,     15.000,    1.858412e-01
 235,     6.4185,     15.000,    1.750002e-01
 236,     6.3889,     15.000,    1.825631e-01
 237,     6.3768,     15.000,    2.106099e-01
 238,     6.3606,     15.000,    2.514753e-01
 239,     6.3451,     15.000,    1.775235e-01
 240,     6.3327,     15.000,    2.271028e-01
 241,     6.3037,     15.000,    2.153585e-01
 242,     6.2845,     15.000,    2.380493e-01
 243,     6.2451,     15.000,    1.760712e-01
 244,     6.2354,     15.000,    2.388404e-01
 245,     6.2215,     15.000,    1.990183e-01
 246,     6.2017,     15.000,    1.957993e-01
 247,     6.1689,     15.000,    1.140668e-01
 248,     6.1562,     15.000,    2.024669e-01
 249,     6.1480,     15.000,    1.455206e-01
 250,     6.1357,     15.000,    1.518515e-01
 251,     6.1233,     15.000,    1.430910e-01
 252,     6.1136,     15.000,    1.425753e-01
 253,     6.1067,     11.955,    8.784913e-02
 254,     6.0967,     15.000,    1.208103e-01
 255,     6.0838,     13.883,    1.765560e-01
 256,     6.0765,     15.000,    7.728273e-02
 257,     6.0679,     15.000,    1.253271e-01
 258,     6.0536,     15.000,    1.478292e-01
 259,     6.0363,     15.000,    1.171798e-01
 260,     6.0275,     15.000,    1.224344e-01
 261,     6.0170,     15.000,    9.700768e-02
 262,     6.0060,     15.000,    1.397183e-01
 263,     5.9946,     15.000,    1.571479e-01
 264,     5.9790,     15.000,    1.288527e-01
 265,     5.9670,     15.000,    1.057417e-01
 266,     5.9556,     15.000,    1.385970e-01
 267,     5.9405,     15.000,    9.427571e-02
 268,     5.9247,     15.000,    1.240853e-01
 269,     5.9136,     15.000,    1.669712e-01
 270,     5.9017,     14.835,    6.701822e-02
 271,     5.8899,     15.000,    1.292145e-01
 272,     5.8810,     15.000,    1.206610e-01
 273,     5.8592,     15.000,    1.222652e-01
 274,     5.8472,     15.000,    1.517415e-01
 275,     5.8175,     15.000,    1.441871e-01
 276,     5.7916,     15.000,    1.389935e-01
 277,     5.7835,     15.000,    1.136620e-01
 278,     5.7699,     11.874,    1.090782e-01
 279,     5.7612,     15.000,    6.928191e-02
 280,     5.7549,      8.071,    7.904920e-02
 281,     5.7431,     14.247,    5.975959e-02
 282,     5.7345,      4.727,    4.209236e-02
 283,     5.7275,     15.000,    1.372247e-01
 284,     5.7179,     15.000,    1.081088e-01
 285,     5.7048,     15.000,    9.359074e-02
 286,     5.6897,     15.000,    8.499670e-02
 287,     5.6786,     15.000,    1.323228e-01
 288,     5.6594,     13.582,    1.147936e-01
 289,     5.6463,     15.000,    1.008307e-01
 290,     5.6392,     15.000,    1.235087e-01
 291,     5.6314,     14.877,    1.138454e-01
 292,     5.6216,     15.000,    1.455465e-01
 293,     5.6081,     15.000,    1.296012e-01
 294,     5.5878,     15.000,    1.884472e-01
 295,     5.5637,     15.000,    1.916561e-01
 296,     5.5501,     15.000,    1.744624e-01
 297,     5.5308,     15.000,    1.342276e-01
 298,     5.5160,     15.000,    2.217541e-01
 299,     5.5024,     15.000,    1.302496e-01
 300,     5.4845,     15.000,    1.789019e-01
 301,     5.4715,     15.000,    1.161598e-01
 302,     5.4570,     15.000,    1.378985e-01
 303,     5.4427,     15.000,    1.635268e-01
 304,     5.4256,     15.000,    1.553738e-01
 305,     5.4177,     15.000,    1.003780e-01
 306,     5.4097,     15.000,    9.585216e-02
 307,     5.4033,     10.704,    6.511639e-02
 308,     5.3885,     14.976,    1.147532e-01
 309,     5.3811,     14.176,    7.459339e-02
 310,     5.3744,      9.058,    7.037617e-02
 311,     5.3667,     10.587,    6.288208e-02
 312,     5.3551,     15.000,    1.167360e-01
 313,     5.3436,     15.000,    8.241683e-02
 314,     5.3293,     11.879,    6.124909e-02
 315,     5.3214,     15.000,    1.289065e-01
 316,     5.3070,     15.000,    9.277850e-02
 317,     5.2953,     15.000,    1.449170e-01
 318,     5.2780,     15.000,    1.476668e-01
 319,     5.2582,     15.000,    1.221106e-01
 320,     5.2448,     15.000,    1.544061e-01
 321,     5.2310,     15.000,    2.470838e-01
 322,     5.2167,     15.000,    1.390720e-01
 323,     5.2037,     15.000,    1.590722e-01
 324,     5.1890,     15.000,    1.393834e-01
 325,     5.1738,     15.000,    1.491592e-01
 326,     5.1538,     15.000,    1.263245e-01
 327,     5.1451,     15.000,    1.412808e-01
 328,     5.1157,     15.000,    1.574434e-01
 329,     5.0981,     15.000,    1.448804e-01
 330,     5.0855,     15.000,    1.541180e-01
 331,     5.0751,     15.000,    9.515093e-02
 332,     5.0647,     15.000,    8.741943e-02
 333,     5.0529,     10.754,    6.877530e-02
 334,     5.0399,     14.792,    1.403436e-01
 335,     5.0312,      3.712,    2.323439e-02
 336,     5.0274,     15.000,    1.462962e-01
 337,     5.0247,      0.326,    7.784424e-03
 338,     5.0178,      5.577,    5.871449e-02
 339,     5.0130,      5.978,    5.300611e-02
 340,     5.0051,     15.000,    1.720952e-01
 341,     4.9901,     15.000,    1.207231e-01
 342,     4.9728,     15.000,    1.408303e-01
 343,     4.9620,     15.000,    9.860462e-02
 344,     4.9484,     15.000,    1.190993e-01
 345,     4.9336,     15.000,    8.648060e-02
 346,     4.9223,     15.000,    1.815310e-01
 347,     4.9123,     14.803,    1.723696e-01
 348,     4.9028,     14.907,    1.286844e-01
 349,     4.8932,     15.000,    1.402745e-01
 350,     4.8851,     15.000,    1.790046e-01
 351,     4.8726,      7.973,    4.728015e-02
 352,     4.8664,     13.965,    1.554503e-01
 353,     4.8575,     15.000,    1.151546e-01
 354,     4.8480,     15.000,    1.400187e-01
 355,     4.8366,     15.000,    1.820615e-01
 356,     4.8258,     15.000,    5.566737e-01
 357,     4.8148,     15.000,    5.271383e-01
 358,     4.8052,     15.000,    5.061871e-01
 359,     4.7956,     15.000,    5.136448e-01
 360,     4.7886,     15.000,    5.409185e-01
 361,     4.7781,      6.003,    2.274374e-01
 362,     4.7617,     15.000,    6.994995e-01
 363,     4.7504,     15.000,    5.782220e-01
 364,     4.7384,     15.000,    6.259694e-01
 365,     4.7269,     15.000,    6.691156e-01
 366,     4.7134,      5.708,    4.346966e-02
 367,     4.7069,      6.096,    4.384422e-02
 368,     4.7005,      9.731,    8.082315e-02
 369,     4.6859,     15.000,    1.127874e-01
 370,     4.6747,     13.822,    1.761380e-01
 371,     4.6626,     15.000,    2.016308e-01
 372,     4.6444,     15.000,    1.586718e-01
 373,     4.6290,     15.000,    1.705073e-01
 374,     4.6101,     15.000,    1.547714e-01
 375,     4.5927,     11.837,    1.235692e-01
 376,     4.5754,     13.651,    6.984556e-02
 377,     4.5694,     11.274,    1.156146e-01
 378,     4.5607,     14.954,    1.413168e-01
 379,     4.5532,     15.000,    9.904824e-02
 380,     4.5373,     15.000,    1.075264e-01
 381,     4.5250,     15.000,    9.784157e-02
 382,     4.5113,     15.000,    7.280540e-02
 383,     4.4943,     15.000,    1.181981e-01
 384,     4.4804,     15.000,    9.219179e-02
 385,     4.4701,     15.000,    1.008426e-01
 386,     4.4592,     15.000,    1.151919e-01
 387,     4.4513,      8.162,    4.942388e-02
 388,     4.4455,      4.389,    1.754386e-02
 389,     4.4387,     15.000,    1.378903e-01
 390,     4.4197,     15.000,    1.799422e-01
 391,     4.4103,     15.000,    4.454200e-01
 392,     4.4030,     15.000,    3.171106e-01
 393,     4.3942,     15.000,    2.037945e-01
 394,     4.3769,     15.000,    1.817243e-01
 395,     4.3274,     12.706,    7.397336e+00
 396,     4.3232,     13.942,    1.818075e+01
 397,     4.3193,     14.475,    2.459275e+01
 398,     4.3159,     14.657,    2.719028e+01
 399,     4.3122,     14.808,    2.253128e+01
 400,     4.3089,     14.938,    1.482405e+01
 401,     4.3050,     14.912,    8.849148e+00
 402,     4.2288,     15.000,    3.087764e-01
 403,     4.2216,     15.000,    4.206837e-01
 404,     4.2150,     15.000,    3.351337e-01
 405,     4.2018,     15.000,    2.082357e-01
 406,     4.1902,     15.000,    1.124003e-01
 407,     4.1614,     15.000,    2.522641e-01
 408,     4.1545,     15.000,    3.264301e-01
 409,     4.1492,     15.000,    3.503700e-01
 410,     4.1433,     15.000,    2.420695e-01
 411,     4.1313,     14.942,    1.235028e-01
 412,     4.1234,      6.623,    3.517409e-02
 413,     4.1198,      9.851,    8.413693e-02
 414,     4.1109,     10.392,    5.414948e-02
 415,     4.1070,     12.874,    6.384121e-02
 416,     4.1008,     10.613,    6.349866e-02
 417,     4.0914,     14.967,    1.224061e-01
 418,     4.0744,     15.000,    1.345873e-01
 419,     4.0604,     15.000,    4.169133e-01
 420,     4.0561,      9.655,    6.635570e-02
 421,     4.0484,     11.883,    9.468983e-02
 422,     4.0405,     11.051,    6.489652e-02
 423,     4.0312,      9.506,    1.517329e-01
 424,     4.0235,     15.000,    1.789421e-01
 425,     4.0166,     15.000,    1.284959e-01
 426,     4.0118,     15.000,    2.271270e-01
 427,     4.0039,     15.000,    1.841597e-01
 428,     3.9977,     15.000,    1.902172e-01
 429,     3.9841,     13.641,    4.393361e-01
 430,     3.9777,     13.210,    4.711615e-01
 431,     3.9739,     15.000,    6.956270e-01
 432,     3.9543,      8.699,    3.420025e+00
 433,     3.9488,     15.000,    1.389173e+01
